i,ii,iii,avr,avl,avf,v1,v2,v3,v4,v5,v6,vx,vy,vz
-0.2445,-0.229,0.0155,0.237,-0.13,-0.107,-0.044,-0.1205,-0.056,0.106,0.1965,0.195,-0.0015,0.06,-0.009
-0.2425,-0.2335,0.009,0.238,-0.1255,-0.1125,-0.042,-0.1175,-0.051,0.1095,0.202,0.198,-0.0015,0.061,-0.01
-0.2415,-0.2345,0.007,0.238,-0.124,-0.114,-0.044,-0.118,-0.0535,0.1095,0.2005,0.1965,-0.0035,0.0555,-0.0085
-0.241,-0.229,0.012,0.235,-0.126,-0.109,-0.045,-0.1175,-0.0515,0.1115,0.201,0.197,-0.002,0.0535,-0.008
-0.2315,-0.227,0.0045,0.2295,-0.118,-0.1115,-0.0455,-0.117,-0.0495,0.1115,0.2,0.1985,0.0005,0.0545,-0.0085
-0.226,-0.2325,-0.007,0.2295,-0.1095,-0.12,-0.0505,-0.121,-0.053,0.1075,0.196,0.194,0.0,0.056,-0.0085
-0.225,-0.2365,-0.0115,0.231,-0.1065,-0.1245,-0.0525,-0.1215,-0.0545,0.1065,0.194,0.193,0.001,0.0575,-0.008
-0.2345,-0.2335,0.0005,0.234,-0.117,-0.117,-0.049,-0.1175,-0.0505,0.1115,0.199,0.1985,0.0015,0.052,-0.008
-0.2345,-0.233,0.0015,0.2335,-0.118,-0.116,-0.0515,-0.118,-0.05,0.111,0.2005,0.197,0.0005,0.0475,-0.007
-0.2235,-0.2355,-0.012,0.2295,-0.1055,-0.124,-0.055,-0.1205,-0.054,0.1085,0.198,0.1935,0.0,0.049,-0.0065
-0.2205,-0.2305,-0.0105,0.2255,-0.1045,-0.121,-0.0545,-0.123,-0.054,0.109,0.199,0.195,0.001,0.0535,-0.007
-0.227,-0.228,-0.001,0.2275,-0.1125,-0.115,-0.0565,-0.122,-0.0535,0.1085,0.198,0.196,0.0025,0.0625,-0.0055
-0.232,-0.226,0.0065,0.229,-0.119,-0.11,-0.053,-0.1195,-0.0525,0.109,0.198,0.1975,0.003,0.061,-0.005
-0.2375,-0.23,0.008,0.234,-0.1225,-0.1115,-0.051,-0.1205,-0.0515,0.111,0.199,0.199,0.001,0.05,-0.0055
-0.2445,-0.2325,0.012,0.2385,-0.128,-0.1105,-0.049,-0.119,-0.052,0.1125,0.1985,0.2015,0.001,0.053,-0.0055
-0.237,-0.221,0.016,0.229,-0.126,-0.103,-0.0505,-0.119,-0.0545,0.1095,0.1975,0.2015,0.003,0.059,-0.0055
-0.224,-0.2135,0.0105,0.2185,-0.117,-0.102,-0.056,-0.1225,-0.057,0.106,0.1955,0.197,0.0015,0.058,-0.0055
-0.2265,-0.213,0.013,0.22,-0.1195,-0.1005,-0.0535,-0.1215,-0.0555,0.1065,0.198,0.1975,0.0005,0.0595,-0.0045
-0.2265,-0.209,0.0175,0.218,-0.122,-0.096,-0.052,-0.1195,-0.054,0.1085,0.201,0.199,0.0035,0.066,-0.0025
-0.2275,-0.208,0.0195,0.218,-0.123,-0.0945,-0.0525,-0.1195,-0.055,0.109,0.2015,0.197,0.004,0.067,-0.003
-0.2325,-0.2115,0.021,0.222,-0.1265,-0.0955,-0.052,-0.1205,-0.055,0.108,0.2025,0.1965,0.002,0.0565,-0.003
-0.226,-0.214,0.0125,0.22,-0.119,-0.101,-0.052,-0.119,-0.0545,0.109,0.202,0.197,-0.0005,0.057,-0.0035
-0.2255,-0.2165,0.009,0.221,-0.117,-0.104,-0.051,-0.1195,-0.054,0.1085,0.201,0.197,-0.002,0.0595,-0.003
-0.211,-0.2035,0.008,0.207,-0.109,-0.098,-0.05,-0.1195,-0.052,0.108,0.2005,0.1985,-0.001,0.0625,-0.0015
-0.2135,-0.21,0.004,0.2115,-0.1085,-0.103,-0.051,-0.12,-0.0545,0.107,0.1985,0.1965,0.0005,0.0615,-0.0015
-0.2235,-0.2255,-0.002,0.2245,-0.1105,-0.114,-0.053,-0.121,-0.057,0.1045,0.1975,0.193,0.0,0.052,-0.004
-0.22,-0.223,-0.003,0.2215,-0.1085,-0.113,-0.052,-0.1195,-0.0575,0.103,0.1975,0.1935,0.0,0.0525,-0.004
-0.216,-0.22,-0.004,0.218,-0.1055,-0.112,-0.0515,-0.1185,-0.056,0.1045,0.198,0.1945,0.0015,0.052,-0.004
-0.2,-0.207,-0.0075,0.2035,-0.096,-0.1075,-0.046,-0.1125,-0.0495,0.1105,0.204,0.2,0.0025,0.0495,-0.005
-0.1965,-0.2025,-0.0055,0.1995,-0.095,-0.1045,-0.0435,-0.1105,-0.0465,0.114,0.206,0.2035,0.0035,0.0505,-0.0045
-0.1965,-0.2015,-0.005,0.199,-0.0955,-0.1035,-0.0445,-0.108,-0.0465,0.113,0.205,0.2035,0.0045,0.0475,-0.0055
-0.209,-0.199,0.01,0.204,-0.1095,-0.0945,-0.041,-0.1055,-0.0445,0.1145,0.206,0.205,0.002,0.047,-0.006
-0.2385,-0.222,0.016,0.2305,-0.127,-0.1035,-0.049,-0.113,-0.0505,0.1085,0.199,0.1985,0.001,0.0505,-0.005
-0.252,-0.237,0.015,0.2445,-0.1335,-0.111,-0.0505,-0.114,-0.0525,0.105,0.1965,0.1965,0.001,0.044,-0.0035
-0.2385,-0.2285,0.01,0.2335,-0.124,-0.1095,-0.0455,-0.1115,-0.048,0.1085,0.2,0.199,0.0005,0.0445,-0.0025
-0.2265,-0.2185,0.0075,0.2225,-0.1165,-0.1055,-0.044,-0.107,-0.046,0.1095,0.202,0.201,0.0015,0.051,-0.002
-0.2345,-0.213,0.0215,0.224,-0.128,-0.096,-0.04,-0.103,-0.0435,0.111,0.204,0.2025,0.001,0.052,-0.002
-0.2545,-0.2325,0.022,0.2435,-0.138,-0.1055,-0.045,-0.1095,-0.0485,0.107,0.199,0.1955,0.0015,0.044,-0.0025
-0.2475,-0.2315,0.0165,0.2395,-0.1315,-0.108,-0.046,-0.1105,-0.0485,0.105,0.1975,0.1925,0.0015,0.042,-0.0035
-0.231,-0.215,0.016,0.223,-0.1235,-0.1,-0.0455,-0.1075,-0.0445,0.1075,0.201,0.193,0.0015,0.052,-0.0035
-0.23,-0.2145,0.0155,0.222,-0.1225,-0.0995,-0.0465,-0.1075,-0.0445,0.108,0.2,0.192,0.001,0.048,-0.001
-0.22,-0.2165,0.0035,0.218,-0.1115,-0.107,-0.049,-0.1095,-0.0465,0.1055,0.1935,0.1915,-0.001,0.0495,-0.001
-0.2145,-0.2095,0.005,0.212,-0.1095,-0.1025,-0.042,-0.104,-0.0415,0.113,0.1995,0.1945,-0.003,0.056,-0.0015
-0.2145,-0.207,0.0075,0.211,-0.111,-0.1,-0.0395,-0.1025,-0.0385,0.1115,0.1985,0.1945,0.0,0.052,0.001
-0.2275,-0.2245,0.003,0.226,-0.115,-0.111,-0.045,-0.1075,-0.044,0.1055,0.192,0.1905,0.001,0.046,0.001
-0.2245,-0.226,-0.0015,0.2255,-0.1115,-0.114,-0.0445,-0.1085,-0.0465,0.103,0.1865,0.1875,-0.0025,0.0475,0.001
-0.2135,-0.2265,-0.013,0.22,-0.1,-0.12,-0.049,-0.113,-0.0495,0.098,0.1805,0.183,-0.003,0.051,0.003
-0.2005,-0.219,-0.0185,0.21,-0.091,-0.119,-0.044,-0.1065,-0.043,0.105,0.187,0.186,-0.002,0.0445,0.0015
-0.2065,-0.2195,-0.013,0.213,-0.0965,-0.1165,-0.0385,-0.104,-0.0385,0.1095,0.19,0.187,-0.0045,0.044,0.0
-0.228,-0.2385,-0.0105,0.233,-0.1085,-0.125,-0.0455,-0.1115,-0.044,0.104,0.185,0.1805,-0.006,0.0455,0.003
-0.219,-0.238,-0.019,0.2285,-0.0995,-0.129,-0.047,-0.1085,-0.046,0.0985,0.178,0.1785,-0.001,0.045,0.003
-0.2155,-0.2285,-0.013,0.222,-0.101,-0.121,-0.043,-0.106,-0.0415,0.101,0.1805,0.1825,-0.001,0.0475,0.0055
-0.2155,-0.2255,-0.01,0.2205,-0.1025,-0.118,-0.0415,-0.105,-0.0405,0.102,0.1815,0.1835,-0.0025,0.0445,0.0045
-0.2215,-0.228,-0.0065,0.225,-0.1075,-0.1175,-0.0365,-0.102,-0.039,0.1045,0.181,0.182,-0.004,0.036,0.0025
-0.2315,-0.233,-0.0015,0.232,-0.115,-0.1175,-0.0385,-0.1035,-0.037,0.1045,0.184,0.179,-0.007,0.029,0.004
-0.228,-0.2285,-0.0005,0.228,-0.1135,-0.1145,-0.04,-0.1035,-0.038,0.104,0.185,0.177,-0.0065,0.037,0.0045
-0.219,-0.22,-0.0005,0.2195,-0.109,-0.1105,-0.0395,-0.1,-0.0335,0.1065,0.187,0.1855,-0.002,0.0435,0.0055
-0.221,-0.223,-0.002,0.222,-0.109,-0.1125,-0.0405,-0.0985,-0.034,0.105,0.1845,0.188,-0.0015,0.0395,0.005
-0.227,-0.2275,-0.0005,0.227,-0.113,-0.1145,-0.0405,-0.1005,-0.038,0.102,0.182,0.181,-0.0035,0.04,0.0045
-0.2265,-0.226,0.0005,0.226,-0.113,-0.113,-0.041,-0.1005,-0.0365,0.1015,0.1815,0.1805,-0.0035,0.041,0.005
-0.229,-0.2265,0.003,0.228,-0.116,-0.112,-0.0385,-0.096,-0.0315,0.106,0.1845,0.181,-0.0055,0.0365,0.006
-0.2315,-0.231,0.0005,0.2315,-0.1155,-0.1155,-0.035,-0.0905,-0.028,0.1075,0.185,0.1805,-0.0065,0.0395,0.006
-0.2355,-0.235,0.0005,0.2355,-0.118,-0.1175,-0.035,-0.0885,-0.0285,0.1055,0.1835,0.1815,-0.0065,0.0345,0.007
-0.2235,-0.2405,-0.017,0.232,-0.103,-0.129,-0.0435,-0.095,-0.034,0.0995,0.173,0.176,-0.004,0.0305,0.0085
-0.2135,-0.244,-0.03,0.2285,-0.0915,-0.1375,-0.0465,-0.0955,-0.0345,0.0975,0.171,0.1725,-0.003,0.0325,0.0085
-0.216,-0.2425,-0.026,0.229,-0.0945,-0.1345,-0.0425,-0.09,-0.0285,0.1,0.175,0.1745,-0.003,0.0255,0.008
-0.211,-0.2455,-0.0345,0.2285,-0.088,-0.1405,-0.0425,-0.0885,-0.028,0.099,0.171,0.171,-0.003,0.0215,0.007
-0.2125,-0.249,-0.0365,0.231,-0.088,-0.143,-0.0395,-0.087,-0.026,0.1,0.172,0.171,-0.003,0.0235,0.0065
-0.2185,-0.2515,-0.0325,0.235,-0.0925,-0.1425,-0.036,-0.083,-0.022,0.103,0.174,0.173,-0.0025,0.0235,0.008
-0.2115,-0.2525,-0.0415,0.232,-0.085,-0.1475,-0.0355,-0.079,-0.0195,0.1015,0.171,0.1675,-0.0055,0.015,0.0105
-0.2035,-0.2535,-0.05,0.2285,-0.0765,-0.152,-0.0385,-0.0815,-0.023,0.099,0.1635,0.1605,-0.0075,0.018,0.009
-0.201,-0.243,-0.0415,0.222,-0.0795,-0.1425,-0.035,-0.0775,-0.017,0.103,0.168,0.1615,-0.0075,0.016,0.01
-0.2045,-0.236,-0.031,0.22,-0.0865,-0.1335,-0.029,-0.0665,-0.0045,0.1125,0.172,0.163,-0.01,0.0095,0.0085
-0.2305,-0.262,-0.0315,0.246,-0.0995,-0.147,-0.0355,-0.0725,-0.01,0.1095,0.166,0.155,-0.012,0.011,0.008
-0.233,-0.2745,-0.0415,0.254,-0.0955,-0.1585,-0.0415,-0.0795,-0.0175,0.099,0.161,0.151,-0.01,0.0065,0.0135
-0.2175,-0.2665,-0.0485,0.242,-0.084,-0.1575,-0.0415,-0.0745,-0.015,0.1015,0.1595,0.1545,-0.007,0.003,0.013
-0.222,-0.26,-0.0375,0.241,-0.092,-0.149,-0.039,-0.07,-0.008,0.105,0.1635,0.1585,-0.005,0.0035,0.0125
-0.225,-0.26,-0.035,0.2425,-0.095,-0.1475,-0.039,-0.071,-0.0075,0.102,0.162,0.1555,-0.0055,0.006,0.0135
-0.2135,-0.261,-0.0475,0.237,-0.0825,-0.1545,-0.0415,-0.07,-0.008,0.1005,0.1595,0.153,-0.0065,0.007,0.012
-0.2085,-0.2585,-0.05,0.2335,-0.079,-0.1545,-0.0435,-0.07,-0.0085,0.0965,0.1545,0.15,-0.0075,0.007,0.0125
-0.2145,-0.263,-0.0485,0.2385,-0.083,-0.156,-0.0425,-0.067,-0.0065,0.0965,0.1535,0.148,-0.0095,0.0,0.0135
-0.2115,-0.266,-0.0545,0.239,-0.0785,-0.1605,-0.039,-0.06,-0.001,0.102,0.156,0.15,-0.0095,-0.004,0.0135
-0.2085,-0.2695,-0.0605,0.239,-0.0735,-0.1655,-0.0385,-0.0575,0.002,0.1015,0.155,0.148,-0.009,-0.0025,0.015
-0.208,-0.275,-0.067,0.2415,-0.0705,-0.171,-0.04,-0.0545,0.0045,0.1005,0.1535,0.145,-0.0095,-0.006,0.0165
-0.2105,-0.282,-0.0715,0.2465,-0.0695,-0.177,-0.041,-0.051,0.006,0.101,0.1505,0.142,-0.009,-0.0115,0.0175
-0.2155,-0.285,-0.0695,0.25,-0.073,-0.177,-0.0375,-0.0445,0.0125,0.104,0.1535,0.148,-0.006,-0.0145,0.0195
-0.2115,-0.289,-0.078,0.2505,-0.0665,-0.184,-0.0375,-0.041,0.0145,0.104,0.1505,0.145,-0.007,-0.0135,0.02
-0.204,-0.284,-0.0805,0.244,-0.0615,-0.1825,-0.032,-0.033,0.022,0.109,0.152,0.1455,-0.0075,-0.018,0.0185
-0.193,-0.287,-0.094,0.24,-0.049,-0.1905,-0.0345,-0.0335,0.0225,0.1065,0.1455,0.141,-0.0065,-0.023,0.0225
-0.1775,-0.2995,-0.122,0.2385,-0.0275,-0.211,-0.0455,-0.041,0.014,0.0945,0.1295,0.125,-0.009,-0.028,0.0245
-0.2005,-0.309,-0.1085,0.2545,-0.046,-0.209,-0.0395,-0.032,0.024,0.1005,0.1325,0.128,-0.0105,-0.033,0.024
-0.19,-0.297,-0.107,0.2435,-0.0415,-0.202,-0.0315,-0.021,0.035,0.109,0.139,0.1325,-0.009,-0.034,0.026
-0.162,-0.2715,-0.1095,0.2165,-0.026,-0.1905,-0.022,-0.0055,0.047,0.119,0.1455,0.1415,-0.0065,-0.0385,0.025
-0.1925,-0.297,-0.1045,0.2445,-0.0435,-0.201,-0.0255,-0.005,0.0475,0.116,0.14,0.136,-0.0055,-0.0395,0.0255
-0.1995,-0.323,-0.1235,0.2615,-0.038,-0.2235,-0.0365,-0.0135,0.0405,0.104,0.129,0.122,-0.007,-0.0435,0.027
-0.1945,-0.324,-0.1295,0.259,-0.032,-0.227,-0.0385,-0.0105,0.045,0.105,0.126,0.119,-0.0075,-0.048,0.027
-0.188,-0.316,-0.128,0.252,-0.03,-0.2225,-0.0345,-0.0035,0.0515,0.1075,0.126,0.12,-0.0065,-0.0525,0.027
-0.194,-0.311,-0.117,0.2525,-0.038,-0.2145,-0.0245,0.0095,0.0625,0.116,0.1305,0.126,-0.007,-0.0555,0.0295
-0.2125,-0.322,-0.109,0.2675,-0.0515,-0.216,-0.0225,0.0155,0.068,0.118,0.1285,0.124,-0.0075,-0.0545,0.0305
-0.192,-0.323,-0.131,0.2575,-0.0305,-0.227,-0.0285,0.015,0.066,0.1135,0.1205,0.1165,-0.0065,-0.055,0.0305
-0.167,-0.3205,-0.153,0.244,-0.007,-0.237,-0.0315,0.0165,0.069,0.111,0.1165,0.1105,-0.0065,-0.061,0.0335
-0.1615,-0.32,-0.1585,0.2405,-0.0015,-0.2395,-0.025,0.024,0.078,0.117,0.119,0.1135,-0.0075,-0.0655,0.0355
-0.168,-0.33,-0.162,0.249,-0.0025,-0.2465,-0.023,0.0325,0.0855,0.122,0.116,0.112,-0.0065,-0.0635,0.0385
-0.162,-0.3375,-0.1755,0.25,0.007,-0.2565,-0.025,0.0355,0.089,0.121,0.1115,0.1065,-0.0065,-0.067,0.041
-0.157,-0.3425,-0.1855,0.2495,0.0145,-0.2645,-0.025,0.0405,0.0935,0.121,0.1085,0.105,-0.005,-0.077,0.041
-0.166,-0.3625,-0.1965,0.264,0.0155,-0.28,-0.0295,0.039,0.0925,0.1155,0.1015,0.095,-0.0055,-0.0925,0.04
-0.151,-0.36,-0.2095,0.2555,0.0295,-0.285,-0.0265,0.0445,0.1,0.1205,0.1005,0.0945,-0.0065,-0.0995,0.04
-0.146,-0.3575,-0.211,0.252,0.0325,-0.2845,-0.021,0.054,0.1105,0.1255,0.1015,0.098,-0.0045,-0.1025,0.0405
-0.1525,-0.3655,-0.2125,0.259,0.03,-0.289,-0.019,0.0595,0.1165,0.129,0.101,0.0965,-0.0045,-0.109,0.042
-0.146,-0.3655,-0.2195,0.256,0.037,-0.2925,-0.017,0.069,0.1225,0.13,0.1005,0.098,-0.0035,-0.1075,0.0455
-0.141,-0.367,-0.226,0.254,0.043,-0.297,-0.017,0.076,0.1295,0.1295,0.1,0.097,-0.0025,-0.105,0.046
-0.142,-0.362,-0.22,0.252,0.0395,-0.2915,-0.015,0.0825,0.1395,0.1345,0.1005,0.095,-0.003,-0.1055,0.047
-0.145,-0.3685,-0.224,0.257,0.0395,-0.2965,-0.0165,0.0855,0.144,0.1335,0.0975,0.0905,-0.003,-0.111,0.046
-0.1605,-0.381,-0.2205,0.2705,0.03,-0.301,-0.0135,0.092,0.152,0.139,0.0985,0.09,-0.001,-0.123,0.0475
-0.156,-0.382,-0.226,0.269,0.0355,-0.304,-0.0145,0.096,0.155,0.1365,0.0935,0.0875,-0.0005,-0.1285,0.0505
-0.1385,-0.386,-0.248,0.262,0.055,-0.317,-0.023,0.0945,0.1525,0.129,0.0825,0.078,-0.0015,-0.1265,0.052
-0.136,-0.374,-0.238,0.255,0.051,-0.306,-0.0145,0.107,0.1665,0.1385,0.089,0.0845,0.0025,-0.1295,0.054
-0.137,-0.3665,-0.229,0.252,0.0465,-0.298,-0.0045,0.12,0.1805,0.147,0.0945,0.0895,0.0035,-0.1335,0.0555
-0.154,-0.3845,-0.2305,0.269,0.0385,-0.3075,-0.004,0.1235,0.1835,0.1455,0.0885,0.085,0.001,-0.136,0.054
-0.135,-0.3885,-0.2535,0.262,0.0595,-0.321,-0.0105,0.123,0.182,0.139,0.0785,0.074,0.0,-0.135,0.0565
-0.1175,-0.3945,-0.2765,0.256,0.0795,-0.3355,-0.0185,0.1215,0.1815,0.1345,0.0695,0.062,-0.0005,-0.135,0.059
-0.1245,-0.401,-0.2765,0.263,0.076,-0.339,-0.0145,0.1305,0.1905,0.1395,0.0725,0.063,-0.001,-0.1455,0.057
-0.125,-0.4,-0.275,0.2625,0.075,-0.3375,-0.009,0.1415,0.201,0.1445,0.074,0.0665,0.0,-0.1485,0.0615
-0.1385,-0.405,-0.2665,0.272,0.064,-0.336,-0.002,0.152,0.21,0.1495,0.0745,0.069,0.0015,-0.1495,0.0605
-0.12,-0.4135,-0.2935,0.267,0.087,-0.354,-0.009,0.1495,0.2095,0.1455,0.0675,0.0585,0.001,-0.158,0.06
-0.0915,-0.4185,-0.327,0.255,0.118,-0.373,-0.0155,0.1485,0.21,0.141,0.0585,0.0485,0.0005,-0.1635,0.0625
-0.0885,-0.4145,-0.3265,0.2515,0.119,-0.3705,-0.0095,0.1625,0.221,0.1485,0.063,0.053,0.002,-0.1705,0.063
-0.0895,-0.419,-0.329,0.254,0.12,-0.3745,-0.0095,0.1685,0.2275,0.1515,0.0605,0.0505,0.002,-0.1815,0.063
-0.093,-0.4285,-0.3355,0.261,0.1215,-0.3825,-0.005,0.173,0.2345,0.153,0.06,0.0445,-0.002,-0.188,0.0615
-0.0775,-0.4285,-0.351,0.253,0.137,-0.39,-0.004,0.179,0.2375,0.1525,0.056,0.0455,0.0,-0.1885,0.0645
-0.078,-0.434,-0.356,0.256,0.1395,-0.395,-0.0045,0.184,0.2415,0.1535,0.051,0.045,0.0,-0.1915,0.065
-0.09,-0.441,-0.351,0.2655,0.131,-0.3965,-0.0035,0.188,0.2455,0.1535,0.0495,0.0415,-0.002,-0.1975,0.0655
-0.097,-0.448,-0.351,0.2725,0.127,-0.4,-0.0035,0.192,0.2515,0.1545,0.0465,0.039,-0.0005,-0.2015,0.0645
-0.0985,-0.4495,-0.351,0.274,0.1265,-0.4005,0.0015,0.199,0.2615,0.16,0.0485,0.04,0.0005,-0.2005,0.065
-0.094,-0.4435,-0.3495,0.2685,0.128,-0.3965,0.006,0.207,0.2685,0.1635,0.0505,0.0425,0.0025,-0.198,0.0685
-0.102,-0.4455,-0.3435,0.2735,0.121,-0.395,0.0085,0.215,0.277,0.1685,0.0535,0.0435,0.0035,-0.201,0.0715
-0.092,-0.4475,-0.3555,0.27,0.132,-0.4015,0.0075,0.2185,0.278,0.1665,0.0505,0.0395,0.0055,-0.201,0.074
-0.092,-0.4495,-0.358,0.271,0.133,-0.404,0.0075,0.2215,0.282,0.1675,0.051,0.036,0.0045,-0.2035,0.0715
-0.0815,-0.4465,-0.365,0.264,0.142,-0.406,0.009,0.228,0.29,0.172,0.052,0.036,0.003,-0.205,0.069
-0.0755,-0.4425,-0.367,0.259,0.146,-0.405,0.0135,0.237,0.298,0.1765,0.054,0.0365,0.0035,-0.2005,0.069
-0.079,-0.4445,-0.366,0.2615,0.1435,-0.4055,0.0165,0.2415,0.305,0.179,0.0535,0.036,0.0035,-0.2065,0.07
-0.067,-0.4505,-0.3835,0.2585,0.1585,-0.417,0.017,0.2455,0.3075,0.176,0.0475,0.0325,0.0045,-0.2155,0.069
-0.072,-0.458,-0.386,0.265,0.1575,-0.4225,0.0185,0.25,0.3105,0.1765,0.047,0.029,0.0045,-0.217,0.068
-0.0585,-0.4515,-0.3925,0.255,0.1675,-0.4225,0.02,0.2565,0.316,0.178,0.0455,0.0285,0.007,-0.214,0.069
-0.0525,-0.4475,-0.395,0.25,0.1715,-0.421,0.024,0.2635,0.3245,0.181,0.044,0.0285,0.0065,-0.2125,0.069
-0.0505,-0.4515,-0.401,0.251,0.1755,-0.4265,0.0245,0.266,0.327,0.1815,0.0415,0.022,0.006,-0.214,0.0685
-0.0485,-0.458,-0.41,0.253,0.181,-0.4345,0.0245,0.27,0.3295,0.18,0.038,0.0205,0.007,-0.221,0.0695
-0.047,-0.4565,-0.4095,0.2515,0.1815,-0.433,0.0245,0.276,0.336,0.1835,0.0385,0.0195,0.007,-0.2275,0.067
-0.038,-0.4525,-0.4145,0.2455,0.1885,-0.434,0.0265,0.2825,0.342,0.1875,0.039,0.0205,0.01,-0.2315,0.0685
-0.0335,-0.453,-0.42,0.2435,0.1935,-0.437,0.0285,0.288,0.3485,0.19,0.037,0.021,0.0105,-0.2345,0.0695
-0.014,-0.4405,-0.4265,0.227,0.2065,-0.4335,0.035,0.2985,0.3575,0.1955,0.039,0.0215,0.0095,-0.2315,0.0675
-0.0195,-0.44,-0.4205,0.2295,0.201,-0.4305,0.039,0.302,0.362,0.196,0.0385,0.021,0.0105,-0.225,0.0675
-0.0285,-0.4415,-0.4125,0.235,0.1925,-0.4275,0.041,0.3075,0.369,0.2,0.0385,0.0225,0.0105,-0.2255,0.0665
-0.037,-0.4465,-0.4095,0.2415,0.1865,-0.428,0.045,0.3175,0.3775,0.205,0.038,0.0245,0.0115,-0.233,0.067
-0.0255,-0.4375,-0.4125,0.2315,0.1935,-0.4255,0.045,0.319,0.3795,0.203,0.034,0.02,0.0105,-0.2335,0.066
-0.0115,-0.423,-0.4115,0.217,0.2,-0.4175,0.0505,0.328,0.3885,0.2085,0.038,0.022,0.01,-0.2325,0.066
-0.0165,-0.4215,-0.4055,0.219,0.1945,-0.414,0.055,0.335,0.396,0.212,0.0375,0.0215,0.0095,-0.231,0.065
-0.0215,-0.4385,-0.417,0.23,0.198,-0.428,0.048,0.329,0.3915,0.2035,0.0255,0.0125,0.0105,-0.2305,0.066
-0.055,-0.4765,-0.4215,0.266,0.1835,-0.449,0.035,0.3195,0.382,0.191,0.011,-0.001,0.0115,-0.2285,0.065
-0.0645,-0.48,-0.416,0.272,0.176,-0.4485,0.0345,0.322,0.386,0.191,0.01,-0.0035,0.0105,-0.2275,0.0635
-0.04,-0.461,-0.421,0.2505,0.1905,-0.441,0.047,0.3355,0.4005,0.202,0.0195,0.0035,0.0095,-0.2335,0.064
-0.007,-0.4385,-0.4315,0.223,0.2125,-0.4355,0.057,0.346,0.4105,0.2085,0.0255,0.0055,0.008,-0.2315,0.0615
-0.034,-0.461,-0.427,0.2475,0.197,-0.4445,0.053,0.345,0.4085,0.205,0.02,-0.0015,0.0095,-0.2395,0.062
-0.0515,-0.4815,-0.43,0.2665,0.1895,-0.456,0.0475,0.342,0.406,0.1995,0.01,-0.003,0.0125,-0.241,0.0625
-0.03,-0.4665,-0.4365,0.248,0.2035,-0.4515,0.055,0.35,0.416,0.2065,0.0155,-0.002,0.0105,-0.231,0.061
-0.037,-0.467,-0.43,0.252,0.1965,-0.4485,0.0615,0.3575,0.4235,0.213,0.022,-0.0025,0.01,-0.2385,0.0585
-0.0365,-0.4645,-0.428,0.2505,0.196,-0.4465,0.066,0.3655,0.4295,0.2175,0.0255,0.002,0.008,-0.2405,0.057
-0.02,-0.459,-0.439,0.2395,0.2095,-0.449,0.0655,0.3675,0.4305,0.2165,0.022,0.002,0.01,-0.245,0.0565
0.001,-0.461,-0.462,0.23,0.232,-0.462,0.059,0.3615,0.425,0.209,0.0125,-0.005,0.014,-0.251,0.0585
0.0115,-0.466,-0.477,0.227,0.2445,-0.472,0.057,0.358,0.422,0.2065,0.011,-0.01,0.0125,-0.2465,0.057
0.0055,-0.4595,-0.465,0.227,0.2355,-0.4625,0.065,0.3675,0.429,0.211,0.016,-0.004,0.0125,-0.244,0.053
-0.0165,-0.4565,-0.44,0.2365,0.212,-0.4485,0.074,0.3785,0.4395,0.219,0.0225,0.002,0.013,-0.2435,0.053
-0.0235,-0.459,-0.4355,0.2415,0.2065,-0.4475,0.0775,0.3785,0.441,0.2195,0.0245,0.0025,0.012,-0.2465,0.05
-0.013,-0.4545,-0.4415,0.234,0.2145,-0.4485,0.0815,0.3845,0.4455,0.2245,0.0265,0.004,0.0105,-0.247,0.048
0.003,-0.445,-0.4475,0.221,0.2255,-0.4465,0.0845,0.388,0.45,0.2295,0.0265,0.004,0.011,-0.248,0.047
-0.013,-0.455,-0.4425,0.234,0.215,-0.449,0.0825,0.3845,0.4465,0.225,0.0265,0.004,0.0115,-0.247,0.048
-0.022,-0.4575,-0.4355,0.24,0.207,-0.447,0.0815,0.385,0.4455,0.2235,0.028,0.004,0.0105,-0.244,0.047
-0.021,-0.447,-0.426,0.234,0.2025,-0.4365,0.086,0.3895,0.451,0.2275,0.03,0.0055,0.011,-0.236,0.0435
-0.0325,-0.455,-0.423,0.2435,0.1955,-0.439,0.087,0.3895,0.4525,0.228,0.03,0.004,0.0115,-0.233,0.0405
-0.034,-0.451,-0.417,0.2425,0.1915,-0.4345,0.094,0.3935,0.4565,0.2305,0.034,0.006,0.01,-0.2345,0.04
-0.0395,-0.4495,-0.41,0.2445,0.1855,-0.43,0.0985,0.3965,0.458,0.2325,0.036,0.0115,0.012,-0.2305,0.0415
-0.0185,-0.451,-0.4325,0.235,0.2075,-0.442,0.0945,0.389,0.4505,0.2275,0.03,0.0075,0.014,-0.232,0.0395
-0.011,-0.45,-0.4395,0.2305,0.2145,-0.445,0.097,0.3865,0.4475,0.224,0.0285,0.005,0.012,-0.231,0.036
-0.011,-0.4475,-0.4365,0.2295,0.213,-0.4425,0.0985,0.3895,0.4515,0.2255,0.031,0.009,0.014,-0.231,0.0345
0.0,-0.4345,-0.4345,0.217,0.2175,-0.4345,0.102,0.394,0.4565,0.23,0.036,0.0165,0.014,-0.231,0.0335
-0.0025,-0.4395,-0.4365,0.221,0.2175,-0.4385,0.102,0.3915,0.4535,0.228,0.0355,0.018,0.0145,-0.2375,0.032
-0.0125,-0.4515,-0.439,0.232,0.2135,-0.4455,0.1035,0.3885,0.449,0.225,0.033,0.016,0.0165,-0.2365,0.032
-0.0175,-0.4495,-0.432,0.2335,0.2075,-0.441,0.1075,0.3945,0.453,0.2285,0.0355,0.0185,0.0145,-0.226,0.0305
-0.018,-0.4465,-0.4285,0.232,0.2055,-0.4375,0.11,0.397,0.4545,0.2315,0.04,0.02,0.014,-0.228,0.03
-0.02,-0.4425,-0.423,0.231,0.202,-0.433,0.115,0.3965,0.456,0.236,0.0465,0.0235,0.0135,-0.2255,0.028
-0.0225,-0.4355,-0.413,0.229,0.1955,-0.4245,0.116,0.4,0.4595,0.238,0.048,0.0275,0.0155,-0.2225,0.026
-0.0275,-0.4325,-0.405,0.23,0.189,-0.419,0.115,0.399,0.457,0.2375,0.0485,0.0265,0.015,-0.2205,0.0265
-0.022,-0.433,-0.4105,0.2275,0.1945,-0.422,0.1145,0.3945,0.454,0.2365,0.048,0.0255,0.0145,-0.22,0.021
-0.031,-0.4375,-0.406,0.2345,0.1875,-0.422,0.1165,0.394,0.452,0.2365,0.05,0.027,0.0165,-0.219,0.02
-0.041,-0.4315,-0.3905,0.2365,0.175,-0.4115,0.1205,0.3945,0.4525,0.24,0.056,0.031,0.014,-0.208,0.0175
-0.046,-0.426,-0.38,0.236,0.167,-0.403,0.125,0.395,0.4525,0.24,0.058,0.033,0.0105,-0.204,0.0165
-0.046,-0.43,-0.384,0.238,0.1695,-0.407,0.125,0.3915,0.4485,0.2375,0.056,0.0315,0.012,-0.2105,0.015
-0.0415,-0.423,-0.381,0.232,0.17,-0.4025,0.128,0.393,0.4495,0.239,0.0585,0.0335,0.0125,-0.204,0.0115
-0.0385,-0.414,-0.375,0.226,0.1685,-0.3945,0.13,0.3935,0.4485,0.24,0.0625,0.037,0.013,-0.199,0.011
-0.0265,-0.415,-0.3885,0.2205,0.181,-0.402,0.1255,0.386,0.4405,0.2345,0.057,0.0315,0.012,-0.2005,0.009
-0.0345,-0.421,-0.3865,0.2275,0.1765,-0.404,0.1255,0.382,0.4375,0.231,0.0565,0.031,0.012,-0.1965,0.0095
-0.037,-0.4225,-0.3855,0.2295,0.1745,-0.404,0.129,0.385,0.438,0.234,0.0605,0.034,0.011,-0.198,0.006
-0.0355,-0.421,-0.385,0.228,0.175,-0.403,0.132,0.384,0.436,0.2345,0.061,0.0355,0.0085,-0.194,0.005
-0.0395,-0.4215,-0.3815,0.2305,0.1715,-0.4015,0.133,0.382,0.4335,0.234,0.0625,0.038,0.0095,-0.188,0.0045
-0.0455,-0.422,-0.3765,0.2335,0.166,-0.3995,0.1355,0.383,0.432,0.2355,0.0655,0.0385,0.0085,-0.182,0.0005
-0.049,-0.42,-0.3705,0.2345,0.161,-0.3955,0.139,0.3825,0.4305,0.235,0.0695,0.044,0.01,-0.1725,0.001
-0.04,-0.4175,-0.3775,0.229,0.169,-0.3975,0.1385,0.377,0.427,0.2335,0.0705,0.0435,0.0095,-0.18,-0.001
-0.0265,-0.4075,-0.3815,0.217,0.1775,-0.3945,0.142,0.3755,0.4255,0.2345,0.0725,0.0445,0.01,-0.186,-0.005
-0.029,-0.396,-0.367,0.2125,0.1695,-0.3815,0.1495,0.378,0.4285,0.24,0.0805,0.0515,0.008,-0.18,-0.006
-0.0285,-0.3885,-0.36,0.2085,0.166,-0.3745,0.1505,0.376,0.427,0.2415,0.0835,0.0545,0.006,-0.172,-0.0065
-0.033,-0.391,-0.358,0.212,0.1625,-0.3745,0.147,0.3685,0.419,0.2365,0.0795,0.0515,0.0075,-0.1695,-0.009
-0.0635,-0.406,-0.3425,0.2345,0.14,-0.3745,0.147,0.361,0.412,0.232,0.0785,0.046,0.004,-0.167,-0.0115
-0.0545,-0.4,-0.345,0.227,0.1455,-0.373,0.1485,0.3595,0.4095,0.232,0.0795,0.0485,0.0055,-0.169,-0.013
-0.0545,-0.3955,-0.341,0.225,0.1435,-0.3685,0.1515,0.358,0.41,0.2335,0.0805,0.055,0.0065,-0.1745,-0.0145
-0.0605,-0.3805,-0.32,0.2205,0.13,-0.3505,0.1615,0.363,0.415,0.24,0.0895,0.065,0.004,-0.1705,-0.014
-0.0475,-0.36,-0.3125,0.2035,0.133,-0.3365,0.167,0.364,0.4165,0.2445,0.0985,0.0695,0.001,-0.1635,-0.0155
-0.0645,-0.377,-0.313,0.2205,0.1245,-0.3455,0.162,0.3535,0.404,0.236,0.0925,0.0625,-0.0005,-0.1575,-0.0165
-0.0805,-0.3905,-0.3095,0.2355,0.115,-0.3505,0.158,0.3445,0.394,0.2265,0.0865,0.0575,0.0025,-0.1545,-0.0165
-0.0795,-0.3865,-0.307,0.233,0.114,-0.347,0.158,0.3395,0.3905,0.2245,0.087,0.058,0.0035,-0.1505,-0.02
-0.0755,-0.376,-0.3005,0.226,0.1125,-0.3385,0.1645,0.339,0.3915,0.2295,0.093,0.0635,-0.001,-0.146,-0.0225
-0.0825,-0.375,-0.292,0.2285,0.105,-0.334,0.1675,0.3375,0.3905,0.231,0.0965,0.0655,-0.0045,-0.1415,-0.0245
-0.076,-0.375,-0.2995,0.2255,0.112,-0.3375,0.167,0.3335,0.3855,0.2305,0.097,0.066,-0.005,-0.1405,-0.027
-0.0745,-0.3765,-0.302,0.2255,0.114,-0.3395,0.167,0.33,0.3795,0.2255,0.095,0.065,-0.007,-0.141,-0.028
-0.0775,-0.3785,-0.301,0.228,0.112,-0.34,0.1655,0.326,0.3735,0.2215,0.093,0.0635,-0.0085,-0.1435,-0.029
-0.074,-0.3735,-0.3,0.224,0.113,-0.337,0.1675,0.3245,0.3715,0.2225,0.095,0.068,-0.007,-0.142,-0.0285
-0.0795,-0.377,-0.2975,0.2285,0.109,-0.3375,0.1685,0.323,0.3685,0.2205,0.0935,0.0705,-0.008,-0.1405,-0.03
-0.084,-0.379,-0.295,0.2315,0.106,-0.337,0.167,0.3175,0.365,0.221,0.0935,0.0725,-0.0075,-0.1395,-0.0325
-0.083,-0.376,-0.2935,0.2295,0.1055,-0.335,0.1675,0.3125,0.3585,0.2195,0.094,0.074,-0.0085,-0.134,-0.034
-0.083,-0.3745,-0.291,0.229,0.1045,-0.333,0.1715,0.31,0.3565,0.2195,0.0975,0.075,-0.011,-0.135,-0.035
-0.0945,-0.3745,-0.28,0.2345,0.093,-0.3275,0.1775,0.3115,0.3595,0.2235,0.104,0.0795,-0.011,-0.129,-0.0365
-0.08,-0.368,-0.288,0.224,0.104,-0.3285,0.1745,0.306,0.3515,0.22,0.1025,0.074,-0.014,-0.1225,-0.038
-0.079,-0.3625,-0.2835,0.221,0.1025,-0.323,0.171,0.2965,0.344,0.2175,0.1015,0.072,-0.014,-0.1175,-0.0405
-0.092,-0.362,-0.27,0.227,0.0895,-0.3165,0.1755,0.296,0.342,0.217,0.105,0.0805,-0.012,-0.115,-0.0425
-0.095,-0.362,-0.267,0.2285,0.0865,-0.315,0.176,0.2925,0.3395,0.215,0.107,0.0835,-0.0135,-0.112,-0.0415
-0.086,-0.3455,-0.2595,0.2155,0.087,-0.303,0.18,0.293,0.339,0.217,0.1125,0.0865,-0.015,-0.109,-0.0435
-0.075,-0.3345,-0.259,0.205,0.092,-0.297,0.1805,0.2905,0.336,0.216,0.1135,0.088,-0.0135,-0.1055,-0.043
-0.0975,-0.3485,-0.251,0.223,0.0765,-0.3,0.1785,0.2835,0.3275,0.2125,0.11,0.0855,-0.014,-0.1025,-0.042
-0.0985,-0.3425,-0.244,0.2205,0.073,-0.2935,0.1815,0.2795,0.3245,0.2135,0.1135,0.0895,-0.0155,-0.104,-0.044
-0.09,-0.332,-0.242,0.211,0.076,-0.2875,0.1815,0.278,0.323,0.2135,0.1145,0.092,-0.016,-0.0955,-0.0455
-0.1005,-0.337,-0.2365,0.2185,0.0685,-0.287,0.182,0.275,0.319,0.2105,0.1145,0.0925,-0.018,-0.09,-0.046
-0.1065,-0.344,-0.2375,0.2255,0.0655,-0.291,0.181,0.2675,0.3145,0.2085,0.115,0.092,-0.0175,-0.0905,-0.0455
-0.1095,-0.3475,-0.238,0.2285,0.0645,-0.293,0.182,0.265,0.3115,0.209,0.115,0.0935,-0.018,-0.0905,-0.047
-0.116,-0.3525,-0.2365,0.234,0.0605,-0.295,0.1805,0.259,0.305,0.204,0.1115,0.092,-0.0185,-0.089,-0.0465
-0.1105,-0.3475,-0.237,0.229,0.0635,-0.2925,0.1805,0.256,0.302,0.2035,0.112,0.093,-0.018,-0.0845,-0.0465
-0.1015,-0.341,-0.2395,0.221,0.0695,-0.2905,0.182,0.255,0.3015,0.2045,0.117,0.0985,-0.0185,-0.084,-0.0455
-0.099,-0.3435,-0.2445,0.2215,0.0725,-0.294,0.1795,0.2505,0.2955,0.1995,0.1165,0.0935,-0.02,-0.0805,-0.047
-0.1115,-0.3405,-0.229,0.226,0.059,-0.285,0.187,0.2545,0.2985,0.205,0.1225,0.1005,-0.0205,-0.0785,-0.0465
-0.1085,-0.3365,-0.2285,0.2225,0.0605,-0.283,0.187,0.2495,0.295,0.2045,0.125,0.107,-0.019,-0.081,-0.046
-0.086,-0.3215,-0.2355,0.2035,0.075,-0.2785,0.186,0.247,0.2905,0.204,0.127,0.107,-0.021,-0.0855,-0.046
-0.0835,-0.3175,-0.234,0.2005,0.075,-0.276,0.19,0.2505,0.2925,0.2055,0.13,0.1105,-0.023,-0.087,-0.0465
-0.102,-0.3265,-0.224,0.214,0.0615,-0.2755,0.1895,0.2465,0.2885,0.206,0.131,0.111,-0.0225,-0.079,-0.05
-0.132,-0.3405,-0.2085,0.236,0.0385,-0.2745,0.1835,0.2375,0.28,0.2015,0.1305,0.1045,-0.025,-0.0765,-0.049
-0.12,-0.3475,-0.228,0.234,0.054,-0.288,0.1775,0.228,0.2705,0.1935,0.1255,0.095,-0.0275,-0.0765,-0.053
-0.1055,-0.3345,-0.2295,0.22,0.062,-0.2825,0.182,0.23,0.2725,0.1965,0.1285,0.1075,-0.0235,-0.078,-0.0535
-0.1115,-0.327,-0.2155,0.219,0.052,-0.2715,0.1825,0.2295,0.2725,0.1985,0.132,0.116,-0.0185,-0.079,-0.05
-0.1205,-0.33,-0.2095,0.225,0.045,-0.27,0.181,0.2255,0.269,0.197,0.132,0.114,-0.0195,-0.074,-0.051
-0.1465,-0.3375,-0.191,0.242,0.0225,-0.2645,0.1825,0.224,0.267,0.197,0.1345,0.1165,-0.021,-0.0735,-0.05
-0.1605,-0.3415,-0.181,0.251,0.011,-0.2615,0.1825,0.2205,0.265,0.1985,0.1385,0.119,-0.022,-0.071,-0.05
-0.137,-0.3375,-0.2,0.2375,0.0315,-0.269,0.177,0.2125,0.26,0.1935,0.136,0.115,-0.021,-0.0645,-0.0535
-0.1315,-0.33,-0.1985,0.231,0.0335,-0.2645,0.175,0.209,0.256,0.192,0.135,0.1125,-0.022,-0.0675,-0.0535
-0.1425,-0.3315,-0.1885,0.237,0.023,-0.26,0.1785,0.209,0.2555,0.193,0.1375,0.113,-0.026,-0.071,-0.0535
-0.144,-0.3365,-0.1925,0.2405,0.0245,-0.2645,0.1775,0.2065,0.2535,0.1905,0.1385,0.1155,-0.0265,-0.0725,-0.0545
-0.15,-0.3375,-0.1875,0.2435,0.019,-0.2625,0.18,0.206,0.252,0.192,0.1395,0.1235,-0.022,-0.079,-0.054
-0.1395,-0.337,-0.1975,0.238,0.0295,-0.2675,0.1765,0.201,0.2465,0.188,0.137,0.122,-0.021,-0.078,-0.055
-0.13,-0.3345,-0.2045,0.2325,0.0375,-0.27,0.1735,0.1955,0.242,0.1845,0.136,0.1195,-0.0225,-0.075,-0.0545
-0.126,-0.3325,-0.206,0.2295,0.04,-0.2695,0.175,0.1955,0.241,0.1855,0.1385,0.12,-0.023,-0.08,-0.054
-0.1305,-0.3305,-0.2,0.2305,0.035,-0.2655,0.1785,0.195,0.242,0.189,0.1445,0.124,-0.024,-0.073,-0.054
-0.1205,-0.3275,-0.2075,0.224,0.0435,-0.2675,0.176,0.1875,0.2345,0.184,0.142,0.12,-0.0265,-0.0695,-0.056
-0.1175,-0.33,-0.2125,0.224,0.0475,-0.2715,0.174,0.1875,0.2335,0.182,0.1405,0.1135,-0.0325,-0.0745,-0.0545
-0.1195,-0.324,-0.204,0.2215,0.0425,-0.2645,0.1775,0.1915,0.2395,0.1885,0.1445,0.1195,-0.0315,-0.0725,-0.0535
-0.124,-0.327,-0.2025,0.2255,0.0395,-0.265,0.1745,0.185,0.2325,0.184,0.1415,0.1175,-0.0315,-0.07,-0.0565
-0.1535,-0.338,-0.185,0.246,0.016,-0.2615,0.173,0.1795,0.2285,0.18,0.1385,0.12,-0.0305,-0.06,-0.0545
-0.161,-0.3355,-0.1745,0.248,0.007,-0.255,0.173,0.178,0.229,0.1825,0.1405,0.123,-0.029,-0.055,-0.055
-0.153,-0.335,-0.182,0.244,0.015,-0.259,0.1735,0.179,0.227,0.1805,0.1415,0.1215,-0.0305,-0.0575,-0.056
-0.1465,-0.3335,-0.187,0.24,0.0205,-0.2605,0.17,0.177,0.2235,0.1765,0.14,0.124,-0.029,-0.056,-0.0545
-0.149,-0.329,-0.1805,0.239,0.016,-0.255,0.1665,0.175,0.225,0.179,0.143,0.1245,-0.0295,-0.053,-0.0555
-0.16,-0.3295,-0.1695,0.2445,0.0055,-0.25,0.171,0.174,0.223,0.1795,0.144,0.125,-0.029,-0.057,-0.0545
-0.171,-0.3325,-0.162,0.2515,-0.0045,-0.2475,0.175,0.175,0.221,0.179,0.1445,0.127,-0.0315,-0.0685,-0.054
-0.1645,-0.3285,-0.164,0.2465,-0.0005,-0.2465,0.174,0.176,0.2215,0.1795,0.145,0.127,-0.0335,-0.063,-0.0565
-0.167,-0.3245,-0.1575,0.2455,-0.0045,-0.241,0.174,0.176,0.2205,0.1795,0.1445,0.129,-0.031,-0.06,-0.0555
-0.157,-0.3305,-0.1735,0.2435,0.0085,-0.252,0.1705,0.171,0.216,0.1765,0.1405,0.126,-0.0305,-0.061,-0.0545
-0.1345,-0.3335,-0.199,0.234,0.0325,-0.2665,0.164,0.164,0.2095,0.1715,0.136,0.1225,-0.028,-0.06,-0.0575
-0.141,-0.3325,-0.1915,0.2365,0.0255,-0.262,0.1635,0.1665,0.2115,0.1725,0.1385,0.1245,-0.0285,-0.0635,-0.057
-0.1435,-0.3335,-0.19,0.2385,0.0235,-0.262,0.1625,0.166,0.21,0.172,0.14,0.1235,-0.0295,-0.06,-0.056
-0.1515,-0.338,-0.1865,0.2445,0.018,-0.2625,0.1625,0.1635,0.2095,0.172,0.1425,0.124,-0.0305,-0.0585,-0.0545
-0.157,-0.3385,-0.1815,0.248,0.0125,-0.2605,0.1645,0.1675,0.2125,0.1745,0.1445,0.127,-0.03,-0.0625,-0.0525
-0.16,-0.342,-0.182,0.251,0.0115,-0.262,0.1675,0.1695,0.2135,0.1775,0.1465,0.1305,-0.0275,-0.0645,-0.0515
-0.1395,-0.3375,-0.198,0.2385,0.0295,-0.268,0.1635,0.165,0.2105,0.177,0.1425,0.127,-0.0275,-0.0645,-0.0535
-0.126,-0.3295,-0.2035,0.2275,0.039,-0.2665,0.1645,0.165,0.2095,0.175,0.146,0.129,-0.0265,-0.0745,-0.053
-0.147,-0.335,-0.188,0.241,0.0205,-0.2615,0.1665,0.1645,0.2105,0.1775,0.1505,0.1315,-0.026,-0.073,-0.053
-0.1465,-0.3365,-0.19,0.2415,0.022,-0.2635,0.16,0.161,0.2075,0.175,0.146,0.1265,-0.0295,-0.068,-0.057
-0.152,-0.3325,-0.1805,0.2425,0.0145,-0.257,0.159,0.161,0.207,0.174,0.147,0.129,-0.029,-0.0635,-0.0545
-0.1625,-0.3345,-0.172,0.2485,0.005,-0.2535,0.1605,0.162,0.209,0.1775,0.149,0.1325,-0.0285,-0.057,-0.054
-0.1705,-0.3385,-0.168,0.2545,-0.001,-0.2535,0.1625,0.165,0.209,0.1785,0.151,0.132,-0.0305,-0.063,-0.0555
-0.1715,-0.334,-0.1625,0.2525,-0.0045,-0.2485,0.1605,0.165,0.2095,0.178,0.1515,0.1305,-0.03,-0.0665,-0.0565
-0.1645,-0.3275,-0.163,0.246,-0.0005,-0.2455,0.155,0.162,0.2095,0.177,0.1505,0.131,-0.0295,-0.064,-0.057
-0.1835,-0.3285,-0.145,0.256,-0.019,-0.237,0.1595,0.164,0.207,0.178,0.155,0.133,-0.0305,-0.0625,-0.055
-0.188,-0.3305,-0.1425,0.2595,-0.0225,-0.237,0.1615,0.1625,0.2045,0.1775,0.1535,0.1305,-0.0325,-0.0625,-0.055
-0.1715,-0.329,-0.1575,0.25,-0.0065,-0.2435,0.1545,0.157,0.2005,0.1715,0.147,0.125,-0.0315,-0.0455,-0.055
-0.176,-0.3265,-0.151,0.2515,-0.012,-0.239,0.1535,0.156,0.1995,0.1705,0.1475,0.127,-0.0295,-0.0395,-0.053
-0.172,-0.3295,-0.1575,0.251,-0.007,-0.244,0.1505,0.155,0.1995,0.1715,0.147,0.1285,-0.03,-0.049,-0.0525
-0.1675,-0.333,-0.1655,0.25,-0.001,-0.2495,0.1515,0.156,0.2,0.172,0.148,0.13,-0.0295,-0.0545,-0.0525
-0.1725,-0.333,-0.161,0.2525,-0.0055,-0.247,0.155,0.156,0.1995,0.1725,0.1495,0.1325,-0.03,-0.0555,-0.052
-0.1705,-0.332,-0.162,0.251,-0.004,-0.247,0.155,0.156,0.199,0.173,0.1485,0.1315,-0.032,-0.051,-0.053
-0.1665,-0.336,-0.1695,0.2515,0.002,-0.253,0.1505,0.153,0.1965,0.1705,0.146,0.13,-0.03,-0.05,-0.053
-0.16,-0.336,-0.176,0.248,0.0085,-0.2565,0.149,0.153,0.1965,0.1715,0.146,0.13,-0.0295,-0.0545,-0.055
-0.161,-0.33,-0.1695,0.2455,0.0045,-0.2495,0.154,0.156,0.2015,0.177,0.151,0.134,-0.0295,-0.055,-0.055
-0.168,-0.3365,-0.1685,0.2525,0.0005,-0.253,0.1525,0.154,0.1985,0.1755,0.151,0.1345,-0.027,-0.0485,-0.0545
-0.191,-0.346,-0.155,0.2685,-0.018,-0.2505,0.156,0.159,0.2035,0.1805,0.1545,0.1365,-0.0275,-0.0525,-0.054
-0.1845,-0.3415,-0.1565,0.263,-0.014,-0.2495,0.1575,0.1565,0.202,0.1795,0.154,0.138,-0.0275,-0.05,-0.053
-0.1615,-0.331,-0.169,0.2465,0.004,-0.25,0.1555,0.155,0.197,0.1765,0.152,0.1355,-0.0265,-0.048,-0.053
-0.177,-0.3275,-0.1505,0.252,-0.013,-0.2395,0.1565,0.16,0.2065,0.1825,0.1575,0.1405,-0.0255,-0.051,-0.052
-0.1995,-0.34,-0.1405,0.27,-0.0295,-0.2405,0.155,0.157,0.2065,0.181,0.1575,0.141,-0.0245,-0.046,-0.0535
-0.1965,-0.3445,-0.148,0.2705,-0.024,-0.2465,0.1515,0.1555,0.202,0.178,0.155,0.1385,-0.0245,-0.0445,-0.054
-0.1865,-0.3375,-0.151,0.262,-0.0175,-0.2445,0.1495,0.1555,0.201,0.1765,0.154,0.14,-0.024,-0.048,-0.0545
-0.1875,-0.337,-0.1495,0.2625,-0.019,-0.2435,0.146,0.152,0.198,0.174,0.1515,0.137,-0.0255,-0.048,-0.0555
-0.184,-0.333,-0.149,0.2585,-0.0175,-0.241,0.141,0.148,0.1945,0.1715,0.1495,0.1345,-0.025,-0.0385,-0.0565
-0.181,-0.331,-0.1495,0.256,-0.0155,-0.2405,0.14,0.148,0.1945,0.172,0.151,0.134,-0.0265,-0.039,-0.0555
-0.1845,-0.3285,-0.144,0.2565,-0.02,-0.2365,0.141,0.1495,0.196,0.1735,0.152,0.1375,-0.0245,-0.042,-0.057
-0.203,-0.327,-0.124,0.265,-0.039,-0.226,0.1485,0.153,0.2015,0.178,0.155,0.1435,-0.0235,-0.0395,-0.0585
-0.1935,-0.323,-0.1295,0.258,-0.0315,-0.2265,0.148,0.1545,0.203,0.1795,0.1565,0.144,-0.0265,-0.0375,-0.056
-0.1725,-0.318,-0.146,0.2455,-0.013,-0.232,0.1435,0.152,0.2,0.176,0.152,0.1435,-0.0255,-0.0385,-0.0565
-0.1895,-0.326,-0.1365,0.2575,-0.026,-0.2315,0.1435,0.1525,0.2,0.1755,0.151,0.1445,-0.024,-0.0395,-0.0565
-0.1905,-0.3335,-0.143,0.262,-0.0235,-0.2385,0.136,0.145,0.1945,0.171,0.1495,0.139,-0.0245,-0.0425,-0.0565
-0.1695,-0.33,-0.1605,0.2495,-0.004,-0.2455,0.1355,0.142,0.192,0.1685,0.148,0.1375,-0.0225,-0.048,-0.0565
-0.164,-0.3275,-0.1635,0.246,0.0,-0.246,0.138,0.146,0.194,0.171,0.1505,0.141,-0.0215,-0.045,-0.056
-0.168,-0.334,-0.166,0.251,-0.001,-0.25,0.135,0.1455,0.193,0.172,0.1515,0.1385,-0.0215,-0.0405,-0.0585
-0.169,-0.334,-0.165,0.2515,-0.0015,-0.25,0.141,0.147,0.195,0.174,0.153,0.139,-0.0215,-0.044,-0.06
-0.1785,-0.335,-0.1565,0.2565,-0.0105,-0.246,0.1405,0.1455,0.196,0.1765,0.153,0.139,-0.024,-0.0485,-0.057
-0.172,-0.3315,-0.1595,0.252,-0.006,-0.2455,0.1395,0.147,0.1995,0.1785,0.153,0.14,-0.024,-0.047,-0.056
-0.174,-0.325,-0.1515,0.2495,-0.011,-0.2385,0.1425,0.1495,0.2,0.179,0.1525,0.1415,-0.021,-0.0435,-0.057
-0.2,-0.332,-0.132,0.266,-0.0335,-0.232,0.14,0.148,0.199,0.1785,0.1515,0.141,-0.0215,-0.032,-0.0565
-0.204,-0.337,-0.133,0.2705,-0.0355,-0.235,0.139,0.1445,0.196,0.178,0.1495,0.1405,-0.023,-0.0295,-0.0575
-0.183,-0.3175,-0.1345,0.25,-0.024,-0.226,0.143,0.1475,0.198,0.1805,0.154,0.148,-0.0215,-0.0305,-0.0575
-0.165,-0.301,-0.136,0.233,-0.0145,-0.219,0.1415,0.148,0.2025,0.183,0.1595,0.1505,-0.0195,-0.027,-0.056
-0.1815,-0.3185,-0.1365,0.25,-0.0225,-0.228,0.132,0.138,0.192,0.1755,0.1535,0.1415,-0.021,-0.025,-0.0585
-0.171,-0.3025,-0.131,0.237,-0.0195,-0.217,0.1365,0.144,0.1965,0.1785,0.1575,0.146,-0.0215,-0.023,-0.0615
-0.17,-0.2945,-0.125,0.2325,-0.0225,-0.21,0.139,0.147,0.2015,0.185,0.1625,0.1505,-0.0215,-0.028,-0.0595
-0.1995,-0.32,-0.1205,0.26,-0.039,-0.2205,0.133,0.139,0.1935,0.1755,0.155,0.144,-0.0205,-0.031,-0.0595
-0.1935,-0.307,-0.1135,0.2505,-0.04,-0.2105,0.1365,0.1445,0.197,0.1785,0.161,0.148,-0.0195,-0.03,-0.06
-0.1865,-0.306,-0.1195,0.2465,-0.0335,-0.213,0.1345,0.143,0.195,0.1785,0.1595,0.15,-0.019,-0.032,-0.0595
-0.1825,-0.313,-0.1305,0.248,-0.026,-0.222,0.1325,0.1395,0.1895,0.172,0.152,0.1455,-0.0205,-0.0305,-0.0595
-0.178,-0.3065,-0.128,0.2425,-0.0245,-0.2175,0.133,0.141,0.1915,0.1745,0.1565,0.1475,-0.0205,-0.0315,-0.059
-0.174,-0.305,-0.131,0.2395,-0.021,-0.2185,0.1295,0.139,0.1905,0.1735,0.1565,0.1485,-0.017,-0.031,-0.0595
-0.173,-0.3055,-0.1325,0.239,-0.02,-0.219,0.128,0.137,0.19,0.174,0.1575,0.149,-0.017,-0.0265,-0.0615
-0.1765,-0.3055,-0.129,0.241,-0.0235,-0.2175,0.1315,0.1395,0.194,0.1785,0.163,0.153,-0.0175,-0.0315,-0.063
-0.176,-0.304,-0.1285,0.24,-0.0235,-0.2165,0.1315,0.1385,0.196,0.181,0.166,0.1535,-0.0185,-0.029,-0.063
-0.1755,-0.3105,-0.1355,0.243,-0.0195,-0.2235,0.128,0.133,0.1915,0.178,0.1635,0.1465,-0.02,-0.03,-0.0645
-0.179,-0.3115,-0.1325,0.245,-0.023,-0.222,0.128,0.1335,0.1905,0.178,0.1645,0.146,-0.021,-0.0305,-0.063
-0.1745,-0.3015,-0.1275,0.238,-0.0235,-0.2145,0.129,0.135,0.1945,0.1815,0.1675,0.156,-0.0175,-0.02,-0.062
-0.1785,-0.304,-0.1255,0.241,-0.026,-0.215,0.1255,0.1335,0.1925,0.18,0.1665,0.1585,-0.0145,-0.017,-0.063
-0.188,-0.3065,-0.1185,0.247,-0.0345,-0.2125,0.1235,0.1285,0.1905,0.1775,0.1655,0.155,-0.0155,-0.02,-0.0635
-0.186,-0.3005,-0.1145,0.2435,-0.0355,-0.208,0.1195,0.1295,0.1925,0.1805,0.17,0.157,-0.014,-0.0225,-0.0655
-0.1935,-0.303,-0.1095,0.248,-0.042,-0.2065,0.121,0.1305,0.191,0.181,0.17,0.1565,-0.0185,-0.0155,-0.065
-0.194,-0.299,-0.105,0.2465,-0.0445,-0.202,0.1275,0.1295,0.188,0.181,0.17,0.155,-0.022,-0.0145,-0.066
-0.195,-0.2935,-0.098,0.244,-0.048,-0.196,0.125,0.1265,0.1875,0.182,0.172,0.157,-0.0215,-0.0065,-0.065
-0.2,-0.2965,-0.0965,0.248,-0.0515,-0.1965,0.1225,0.1215,0.183,0.178,0.168,0.157,-0.016,-0.0025,-0.0635
-0.1925,-0.287,-0.0945,0.2395,-0.049,-0.191,0.1225,0.1215,0.1825,0.179,0.1695,0.1575,-0.0135,-0.006,-0.0635
-0.1945,-0.285,-0.0905,0.24,-0.0515,-0.188,0.123,0.123,0.1865,0.182,0.1705,0.1585,-0.0175,0.002,-0.064
-0.1955,-0.2855,-0.09,0.2405,-0.0525,-0.188,0.1225,0.1245,0.1845,0.1815,0.169,0.1575,-0.0165,-0.0035,-0.064
-0.1915,-0.281,-0.0895,0.236,-0.0505,-0.1855,0.122,0.1215,0.1825,0.182,0.169,0.157,-0.0165,-0.0045,-0.063
-0.1995,-0.2935,-0.094,0.2465,-0.0525,-0.194,0.1185,0.116,0.179,0.1785,0.165,0.1535,-0.0155,-0.002,-0.0645
-0.1945,-0.288,-0.0935,0.241,-0.0505,-0.191,0.1175,0.117,0.177,0.177,0.1645,0.1525,-0.015,0.002,-0.0645
-0.1805,-0.274,-0.0935,0.227,-0.0435,-0.184,0.1205,0.117,0.177,0.1795,0.166,0.156,-0.0165,0.005,-0.066
-0.181,-0.2785,-0.097,0.23,-0.0415,-0.188,0.1205,0.1145,0.175,0.179,0.167,0.1565,-0.017,-0.001,-0.066
-0.181,-0.2835,-0.1025,0.2325,-0.039,-0.193,0.1195,0.1135,0.176,0.1785,0.167,0.155,-0.015,-0.0055,-0.0665
-0.1825,-0.284,-0.1015,0.2335,-0.0405,-0.193,0.1165,0.111,0.175,0.1795,0.1675,0.1555,-0.014,-0.007,-0.0685
-0.1815,-0.285,-0.103,0.233,-0.039,-0.194,0.114,0.107,0.1705,0.1785,0.167,0.155,-0.015,-0.0085,-0.07
-0.1815,-0.2855,-0.104,0.2335,-0.0385,-0.1945,0.1105,0.103,0.1675,0.1755,0.167,0.1535,-0.015,-0.0095,-0.069
-0.1815,-0.2825,-0.101,0.232,-0.04,-0.192,0.111,0.104,0.1695,0.1785,0.169,0.1575,-0.0135,-0.002,-0.0695
-0.1785,-0.273,-0.0945,0.2255,-0.0415,-0.184,0.112,0.105,0.174,0.1825,0.171,0.16,-0.0115,0.0085,-0.0705
-0.1875,-0.269,-0.082,0.228,-0.0525,-0.1755,0.1095,0.1035,0.171,0.181,0.17,0.16,-0.0115,0.019,-0.068
-0.1905,-0.2695,-0.079,0.2295,-0.055,-0.1745,0.11,0.102,0.1675,0.18,0.172,0.164,-0.0095,0.024,-0.0705
-0.192,-0.2665,-0.0745,0.2295,-0.0585,-0.171,0.109,0.0985,0.1675,0.1805,0.174,0.164,-0.0115,0.015,-0.072
-0.2025,-0.2625,-0.06,0.2325,-0.071,-0.1615,0.1095,0.0995,0.169,0.181,0.1755,0.1655,-0.0145,0.012,-0.0715
-0.1985,-0.2615,-0.0625,0.23,-0.068,-0.1625,0.1075,0.0965,0.165,0.178,0.1735,0.163,-0.0135,0.02,-0.0715
-0.198,-0.264,-0.066,0.231,-0.066,-0.165,0.103,0.0895,0.1605,0.176,0.1695,0.1575,-0.015,0.0215,-0.0715
-0.2005,-0.25,-0.0495,0.2255,-0.0755,-0.15,0.11,0.097,0.1675,0.1825,0.1805,0.1655,-0.016,0.0235,-0.0725
-0.198,-0.2455,-0.0475,0.222,-0.075,-0.147,0.1095,0.099,0.168,0.1835,0.1835,0.1645,-0.018,0.0175,-0.073
-0.228,-0.263,-0.0355,0.2455,-0.096,-0.1495,0.1055,0.095,0.165,0.1835,0.1815,0.1625,-0.02,0.0115,-0.0725
-0.2295,-0.2705,-0.0415,0.25,-0.094,-0.1565,0.104,0.0925,0.162,0.181,0.179,0.1605,-0.0195,0.0245,-0.074
-0.229,-0.274,-0.045,0.2515,-0.0915,-0.16,0.1,0.091,0.161,0.18,0.1765,0.157,-0.022,0.0285,-0.074
-0.2175,-0.2785,-0.061,0.248,-0.078,-0.17,0.093,0.083,0.153,0.1745,0.171,0.1515,-0.022,0.0245,-0.0745
-0.183,-0.273,-0.09,0.228,-0.046,-0.1815,0.084,0.074,0.143,0.1665,0.1635,0.1485,-0.0195,0.027,-0.075
-0.1905,-0.2695,-0.0785,0.23,-0.0555,-0.174,0.0915,0.084,0.151,0.1735,0.1725,0.1585,-0.0175,0.0235,-0.0775
-0.1855,-0.2705,-0.085,0.228,-0.05,-0.178,0.0935,0.0885,0.158,0.1785,0.1755,0.1615,-0.0165,0.02,-0.081
-0.183,-0.2715,-0.088,0.227,-0.047,-0.18,0.0905,0.086,0.156,0.1785,0.1755,0.159,-0.0175,0.0195,-0.081
-0.1745,-0.2675,-0.093,0.221,-0.0405,-0.1805,0.091,0.08,0.149,0.177,0.1785,0.156,-0.0175,0.0195,-0.081
-0.1845,-0.2625,-0.0785,0.2235,-0.053,-0.1705,0.0965,0.0815,0.149,0.178,0.183,0.166,-0.018,0.02,-0.079
-0.1915,-0.251,-0.0595,0.221,-0.0655,-0.1555,0.1075,0.0945,0.161,0.188,0.194,0.179,-0.0175,0.022,-0.081
-0.181,-0.2395,-0.0585,0.21,-0.061,-0.149,0.1045,0.0955,0.166,0.1935,0.1975,0.181,-0.017,0.028,-0.0815
-0.1955,-0.2495,-0.054,0.2225,-0.0705,-0.152,0.097,0.086,0.1575,0.186,0.1895,0.1755,-0.0165,0.028,-0.0825
-0.1935,-0.2625,-0.069,0.228,-0.062,-0.166,0.09,0.076,0.1465,0.176,0.181,0.1675,-0.0155,0.0255,-0.084
-0.1965,-0.27,-0.0735,0.233,-0.0615,-0.172,0.085,0.069,0.1395,0.168,0.175,0.1635,-0.0155,0.0325,-0.0835
-0.193,-0.2665,-0.0735,0.2295,-0.0595,-0.17,0.0835,0.07,0.14,0.1675,0.1765,0.162,-0.0175,0.0335,-0.086
-0.1915,-0.2525,-0.061,0.222,-0.065,-0.157,0.0855,0.075,0.1465,0.175,0.1835,0.1685,-0.017,0.037,-0.0825
-0.2035,-0.2525,-0.0485,0.228,-0.0775,-0.151,0.088,0.076,0.1475,0.178,0.1845,0.1725,-0.0165,0.035,-0.0805
-0.208,-0.257,-0.049,0.2325,-0.079,-0.1535,0.0855,0.0735,0.1465,0.179,0.1825,0.1715,-0.0175,0.0315,-0.0805
-0.194,-0.244,-0.0505,0.219,-0.0715,-0.1475,0.088,0.075,0.148,0.1815,0.186,0.176,-0.014,0.032,-0.0795
-0.1955,-0.244,-0.048,0.2195,-0.0735,-0.1465,0.09,0.073,0.1455,0.181,0.188,0.1765,-0.016,0.0295,-0.078
-0.206,-0.255,-0.049,0.2305,-0.078,-0.1525,0.085,0.0665,0.143,0.179,0.1835,0.172,-0.0175,0.035,-0.0805
-0.188,-0.2395,-0.0515,0.214,-0.068,-0.146,0.092,0.0725,0.148,0.185,0.191,0.178,-0.0155,0.033,-0.0835
-0.185,-0.23,-0.0455,0.2075,-0.0695,-0.138,0.0915,0.074,0.148,0.186,0.1935,0.18,-0.0155,0.0345,-0.081
-0.217,-0.2555,-0.0385,0.236,-0.089,-0.1475,0.0815,0.066,0.1395,0.1785,0.1845,0.171,-0.0145,0.0305,-0.081
-0.234,-0.267,-0.033,0.2505,-0.1005,-0.1505,0.0835,0.067,0.1385,0.1775,0.1855,0.1715,-0.0145,0.0285,-0.0805
-0.175,-0.244,-0.0695,0.2095,-0.0525,-0.157,0.0795,0.0665,0.1385,0.1765,0.1835,0.1695,-0.0125,0.0355,-0.0815
-0.151,-0.2335,-0.0825,0.1925,-0.034,-0.1585,0.0775,0.064,0.136,0.1745,0.182,0.1685,-0.013,0.038,-0.081
-0.1805,-0.2435,-0.063,0.212,-0.0585,-0.1535,0.081,0.062,0.133,0.1725,0.1835,0.171,-0.0135,0.0365,-0.0795
-0.184,-0.2475,-0.063,0.2155,-0.0605,-0.1555,0.0825,0.0615,0.132,0.173,0.1855,0.171,-0.015,0.0375,-0.079
-0.1875,-0.245,-0.0575,0.2165,-0.065,-0.1515,0.0835,0.064,0.1345,0.177,0.1895,0.177,-0.014,0.037,-0.0805
-0.1855,-0.237,-0.052,0.2115,-0.0665,-0.1445,0.0815,0.066,0.1375,0.1805,0.192,0.1785,-0.012,0.037,-0.0825
-0.1835,-0.234,-0.051,0.209,-0.066,-0.1425,0.08,0.062,0.135,0.1785,0.192,0.179,-0.0115,0.0455,-0.0795
-0.1865,-0.237,-0.051,0.2115,-0.0675,-0.144,0.082,0.0625,0.135,0.1775,0.1925,0.179,-0.0115,0.0405,-0.0805
-0.19,-0.236,-0.046,0.213,-0.0715,-0.1415,0.0845,0.063,0.1365,0.182,0.1975,0.1765,-0.0135,0.0455,-0.083
-0.1945,-0.234,-0.0395,0.2145,-0.0775,-0.137,0.083,0.0595,0.1345,0.1825,0.1975,0.18,-0.012,0.06,-0.0825
-0.1935,-0.2285,-0.035,0.211,-0.079,-0.132,0.0815,0.058,0.134,0.18,0.195,0.181,-0.0105,0.055,-0.084
-0.1895,-0.2245,-0.035,0.207,-0.077,-0.13,0.082,0.0565,0.13,0.179,0.196,0.1795,-0.014,0.0505,-0.0855
-0.189,-0.2195,-0.0305,0.204,-0.079,-0.1255,0.087,0.0595,0.1325,0.183,0.2005,0.181,-0.014,0.0535,-0.085
-0.1875,-0.217,-0.029,0.202,-0.079,-0.1235,0.0865,0.0615,0.1375,0.1855,0.2045,0.181,-0.0125,0.0555,-0.0865
-0.193,-0.222,-0.029,0.2075,-0.0815,-0.126,0.085,0.059,0.136,0.184,0.2045,0.1825,-0.0135,0.0455,-0.0855
-0.18,-0.2135,-0.0335,0.1965,-0.073,-0.124,0.089,0.061,0.1365,0.187,0.207,0.186,-0.014,0.0405,-0.086
-0.1735,-0.2105,-0.037,0.192,-0.068,-0.124,0.0885,0.063,0.138,0.1885,0.21,0.1835,-0.0155,0.041,-0.0885
-0.192,-0.2225,-0.0305,0.207,-0.0805,-0.127,0.082,0.055,0.1315,0.184,0.2045,0.183,-0.0125,0.048,-0.0855
-0.19,-0.2215,-0.0315,0.2055,-0.0785,-0.127,0.0805,0.0535,0.1315,0.182,0.202,0.187,-0.01,0.0535,-0.0855
-0.173,-0.212,-0.039,0.1925,-0.067,-0.1255,0.084,0.056,0.1335,0.186,0.207,0.1895,-0.011,0.0495,-0.086
-0.174,-0.2175,-0.0435,0.196,-0.065,-0.131,0.0815,0.0545,0.1315,0.1865,0.2075,0.189,-0.011,0.0445,-0.0855
-0.188,-0.229,-0.0415,0.2085,-0.073,-0.1355,0.0815,0.0525,0.131,0.1835,0.2045,0.1865,-0.009,0.05,-0.0865
-0.1875,-0.226,-0.039,0.2065,-0.074,-0.1325,0.085,0.0545,0.1325,0.186,0.205,0.1885,-0.01,0.048,-0.086
-0.1925,-0.224,-0.032,0.2085,-0.08,-0.1285,0.0875,0.057,0.1355,0.1895,0.2085,0.192,-0.013,0.0345,-0.086
-0.1865,-0.2265,-0.0395,0.2065,-0.073,-0.1335,0.0815,0.052,0.131,0.1875,0.2065,0.188,-0.013,0.0485,-0.0885
-0.1715,-0.2205,-0.0495,0.196,-0.0605,-0.1355,0.079,0.0485,0.1255,0.1815,0.201,0.1815,-0.0155,0.0515,-0.0905
-0.1765,-0.214,-0.038,0.195,-0.069,-0.1265,0.08,0.0485,0.128,0.182,0.2015,0.1845,-0.013,0.0475,-0.0885
-0.177,-0.2045,-0.0275,0.1905,-0.0745,-0.116,0.086,0.054,0.1345,0.192,0.2105,0.195,-0.009,0.0525,-0.091
-0.1715,-0.1945,-0.023,0.183,-0.074,-0.109,0.09,0.0555,0.137,0.194,0.216,0.1975,-0.0125,0.0535,-0.0915
-0.1765,-0.1975,-0.021,0.187,-0.0775,-0.1095,0.0805,0.0475,0.132,0.188,0.211,0.1915,-0.0135,0.0615,-0.0875
-0.1815,-0.199,-0.0175,0.1905,-0.082,-0.1085,0.078,0.044,0.129,0.186,0.21,0.19,-0.0135,0.0655,-0.0885
-0.1925,-0.2,-0.0075,0.196,-0.0925,-0.104,0.079,0.044,0.1295,0.1875,0.2125,0.191,-0.0135,0.07,-0.0885
-0.2015,-0.2015,0.0,0.2015,-0.1005,-0.101,0.078,0.042,0.1265,0.1865,0.211,0.189,-0.0135,0.072,-0.0885
-0.186,-0.1885,-0.0025,0.187,-0.0915,-0.0955,0.077,0.0425,0.1255,0.1875,0.213,0.189,-0.0155,0.074,-0.0925
-0.1945,-0.1875,0.0065,0.191,-0.1,-0.091,0.0805,0.0435,0.13,0.192,0.217,0.1935,-0.0145,0.065,-0.092
-0.201,-0.202,-0.001,0.2015,-0.1,-0.1015,0.076,0.0385,0.123,0.1855,0.211,0.188,-0.0145,0.062,-0.092
-0.1755,-0.1965,-0.0205,0.186,-0.077,-0.109,0.0725,0.036,0.119,0.1835,0.2085,0.1845,-0.016,0.0675,-0.095
-0.1755,-0.1885,-0.013,0.182,-0.081,-0.1015,0.0765,0.04,0.1235,0.188,0.2125,0.1895,-0.0135,0.067,-0.097
-0.187,-0.1935,-0.0065,0.19,-0.09,-0.1005,0.0775,0.0395,0.1235,0.188,0.2125,0.189,-0.0135,0.072,-0.0985
-0.183,-0.194,-0.011,0.1885,-0.086,-0.1025,0.083,0.0425,0.1265,0.1895,0.216,0.192,-0.0145,0.0735,-0.1
-0.184,-0.194,-0.01,0.189,-0.087,-0.102,0.083,0.0465,0.1285,0.192,0.217,0.195,-0.015,0.0765,-0.102
-0.174,-0.1875,-0.0135,0.1805,-0.08,-0.101,0.0845,0.0465,0.1315,0.1955,0.2185,0.1965,-0.0155,0.082,-0.104
-0.163,-0.1825,-0.0195,0.1725,-0.071,-0.1015,0.0855,0.0465,0.132,0.1965,0.2205,0.1965,-0.0135,0.0825,-0.109
-0.1755,-0.1845,-0.009,0.18,-0.0825,-0.097,0.088,0.0485,0.134,0.1995,0.2245,0.1995,-0.0165,0.0785,-0.1095
-0.181,-0.179,0.002,0.18,-0.091,-0.089,0.096,0.054,0.139,0.206,0.2315,0.2055,-0.019,0.088,-0.1095
-0.1745,-0.1715,0.003,0.173,-0.0885,-0.0845,0.0945,0.052,0.138,0.2075,0.2325,0.2085,-0.017,0.0925,-0.1125
-0.174,-0.1685,0.0055,0.1715,-0.0895,-0.0815,0.09,0.045,0.1375,0.2065,0.23,0.209,-0.015,0.1005,-0.115
-0.1795,-0.1665,0.013,0.1725,-0.096,-0.077,0.091,0.0465,0.142,0.21,0.233,0.2115,-0.018,0.1175,-0.1175
-0.163,-0.1435,0.019,0.153,-0.0905,-0.0625,0.1025,0.054,0.1515,0.221,0.2455,0.2235,-0.0185,0.106,-0.1165
-0.184,-0.141,0.043,0.1625,-0.113,-0.0495,0.1085,0.058,0.158,0.227,0.253,0.2295,-0.0185,0.1025,-0.1195
-0.195,-0.158,0.0375,0.1765,-0.116,-0.0605,0.098,0.047,0.145,0.216,0.242,0.219,-0.0185,0.118,-0.1225
-0.1845,-0.155,0.0295,0.17,-0.107,-0.063,0.094,0.0395,0.139,0.211,0.236,0.2125,-0.0195,0.1265,-0.126
-0.2015,-0.1485,0.053,0.175,-0.127,-0.048,0.094,0.0425,0.15,0.2205,0.244,0.221,-0.0225,0.133,-0.1295
-0.1825,-0.141,0.0415,0.162,-0.112,-0.05,0.098,0.04,0.147,0.2185,0.2445,0.222,-0.021,0.138,-0.134
-0.1845,-0.14,0.044,0.162,-0.114,-0.0485,0.106,0.0385,0.145,0.219,0.246,0.2195,-0.024,0.1355,-0.1355
-0.1895,-0.1335,0.056,0.1615,-0.1225,-0.039,0.1115,0.043,0.1515,0.2245,0.2555,0.229,-0.023,0.1335,-0.137
-0.182,-0.1305,0.052,0.156,-0.117,-0.0395,0.116,0.048,0.155,0.226,0.2585,0.227,-0.024,0.1385,-0.1425
-0.188,-0.137,0.051,0.1625,-0.119,-0.0435,0.11,0.0425,0.151,0.2225,0.2535,0.217,-0.0295,0.145,-0.144
-0.184,-0.128,0.056,0.156,-0.12,-0.036,0.1125,0.0445,0.1525,0.2255,0.258,0.221,-0.0275,0.148,-0.147
-0.1675,-0.119,0.049,0.143,-0.108,-0.035,0.1145,0.044,0.1525,0.2265,0.2585,0.2245,-0.0255,0.1475,-0.147
-0.1555,-0.1245,0.031,0.14,-0.093,-0.047,0.1085,0.033,0.143,0.217,0.248,0.2195,-0.026,0.151,-0.146
-0.1555,-0.117,0.0385,0.1365,-0.097,-0.0395,0.1145,0.0395,0.1485,0.221,0.251,0.2235,-0.0285,0.1525,-0.1495
-0.1605,-0.114,0.0465,0.137,-0.103,-0.034,0.1185,0.0435,0.153,0.226,0.255,0.2265,-0.0295,0.1525,-0.1515
-0.1685,-0.1185,0.05,0.1435,-0.109,-0.0345,0.116,0.039,0.15,0.224,0.2535,0.228,-0.0285,0.1545,-0.1525
-0.175,-0.1095,0.0655,0.1425,-0.12,-0.022,0.1195,0.0455,0.1585,0.2325,0.261,0.2365,-0.0275,0.159,-0.1545
-0.177,-0.0975,0.0795,0.137,-0.128,-0.0095,0.1205,0.049,0.1655,0.2385,0.266,0.2385,-0.027,0.166,-0.1575
-0.174,-0.095,0.079,0.1345,-0.1265,-0.008,0.1145,0.0445,0.1635,0.235,0.2645,0.237,-0.026,0.1665,-0.157
-0.1865,-0.1,0.0865,0.1435,-0.136,-0.007,0.1125,0.0455,0.166,0.2395,0.269,0.241,-0.021,0.169,-0.156
-0.191,-0.095,0.096,0.143,-0.1435,0.0005,0.108,0.0425,0.1675,0.243,0.272,0.244,-0.02,0.1735,-0.1535
-0.163,-0.0875,0.0755,0.125,-0.119,-0.006,0.0955,0.034,0.161,0.238,0.267,0.237,-0.0205,0.1755,-0.151
-0.146,-0.0855,0.061,0.1155,-0.103,-0.0125,0.0795,0.026,0.154,0.232,0.261,0.231,-0.02,0.1705,-0.15
-0.153,-0.084,0.0685,0.1185,-0.1105,-0.008,0.069,0.024,0.1535,0.2345,0.265,0.2325,-0.018,0.172,-0.146
-0.158,-0.081,0.077,0.1195,-0.1175,-0.002,0.0655,0.026,0.157,0.2365,0.267,0.2365,-0.018,0.1795,-0.143
-0.1495,-0.073,0.0765,0.111,-0.1125,0.0015,0.0595,0.022,0.1545,0.233,0.2645,0.237,-0.018,0.1765,-0.1425
-0.149,-0.0735,0.0755,0.1115,-0.112,0.0005,0.0435,0.0175,0.1505,0.2325,0.2675,0.237,-0.015,0.1775,-0.14
-0.148,-0.076,0.0715,0.112,-0.1095,-0.0025,0.0315,0.013,0.1535,0.2365,0.2705,0.242,-0.012,0.1645,-0.1355
-0.139,-0.085,0.054,0.112,-0.096,-0.016,0.0225,0.0085,0.148,0.2315,0.2645,0.236,-0.008,0.1545,-0.129
-0.143,-0.097,0.046,0.12,-0.0945,-0.026,0.0165,0.007,0.1395,0.2235,0.2555,0.227,-0.0085,0.1525,-0.1235
-0.127,-0.085,0.042,0.106,-0.0845,-0.0215,0.0215,0.0145,0.1485,0.232,0.263,0.23,-0.006,0.15,-0.1215
-0.136,-0.1085,0.0275,0.122,-0.0815,-0.0405,0.0105,0.007,0.137,0.2195,0.2525,0.2225,-0.001,0.1465,-0.114
-0.139,-0.1285,0.0105,0.134,-0.0745,-0.0595,0.0005,-0.0035,0.125,0.208,0.241,0.215,0.0015,0.1375,-0.1065
-0.1185,-0.101,0.018,0.11,-0.068,-0.042,0.005,0.009,0.1385,0.223,0.259,0.2275,0.004,0.14,-0.1045
-0.114,-0.095,0.019,0.1045,-0.066,-0.038,0.0005,0.0065,0.1415,0.226,0.262,0.2305,0.007,0.1375,-0.1015
-0.118,-0.1015,0.0165,0.1095,-0.067,-0.0425,-0.007,-0.0005,0.1395,0.226,0.2605,0.2305,0.0115,0.135,-0.098
-0.112,-0.101,0.011,0.1065,-0.061,-0.045,-0.0135,-0.002,0.1365,0.226,0.262,0.2305,0.0145,0.1365,-0.0935
-0.105,-0.0995,0.006,0.102,-0.055,-0.047,-0.02,-0.006,0.1355,0.2245,0.259,0.227,0.018,0.1415,-0.092
-0.119,-0.0905,0.0285,0.1045,-0.0735,-0.031,-0.013,0.0015,0.1405,0.231,0.2665,0.234,0.019,0.1485,-0.094
-0.0925,-0.082,0.011,0.087,-0.0515,-0.0355,-0.014,0.0015,0.141,0.2305,0.265,0.237,0.0235,0.1475,-0.0925
-0.0975,-0.08,0.0175,0.0885,-0.0575,-0.0315,-0.011,0.005,0.1475,0.235,0.2685,0.242,0.025,0.14,-0.0915
-0.101,-0.0735,0.027,0.0875,-0.0635,-0.0235,-0.006,0.0075,0.145,0.2335,0.271,0.241,0.018,0.1355,-0.0905
-0.089,-0.077,0.0125,0.083,-0.0505,-0.0325,-0.0125,-0.0035,0.1315,0.221,0.261,0.2325,0.0165,0.142,-0.086
-0.115,-0.0925,0.0225,0.1035,-0.0685,-0.035,-0.014,-0.011,0.1215,0.2155,0.258,0.2295,0.014,0.146,-0.0845
-0.1065,-0.086,0.02,0.0965,-0.063,-0.033,-0.015,-0.0145,0.1185,0.214,0.261,0.227,0.009,0.15,-0.0835
-0.101,-0.0785,0.0225,0.0895,-0.0615,-0.028,-0.015,-0.018,0.1175,0.2145,0.2635,0.228,0.0095,0.151,-0.08
-0.1295,-0.1,0.03,0.1145,-0.0795,-0.0355,-0.0255,-0.03,0.104,0.202,0.2515,0.225,0.012,0.1475,-0.075
-0.133,-0.1015,0.0315,0.1175,-0.082,-0.0355,-0.0235,-0.031,0.104,0.2035,0.2515,0.2285,0.011,0.153,-0.0735
-0.1255,-0.0915,0.0335,0.1085,-0.079,-0.0295,-0.019,-0.0265,0.11,0.211,0.262,0.2335,0.01,0.1575,-0.072
-0.128,-0.094,0.0345,0.111,-0.081,-0.03,-0.026,-0.032,0.1055,0.2085,0.2615,0.233,0.0115,0.1535,-0.0685
-0.1255,-0.103,0.023,0.114,-0.074,-0.04,-0.029,-0.0385,0.098,0.2015,0.2535,0.2265,0.011,0.1545,-0.0705
-0.128,-0.1135,0.015,0.121,-0.0715,-0.0495,-0.0335,-0.0395,0.0975,0.1985,0.2495,0.221,0.011,0.154,-0.0735
-0.1295,-0.111,0.0185,0.1205,-0.074,-0.0465,-0.026,-0.0395,0.0975,0.201,0.251,0.226,0.012,0.157,-0.0725
-0.1375,-0.114,0.023,0.126,-0.08,-0.0455,-0.021,-0.0425,0.089,0.1955,0.2465,0.227,0.012,0.168,-0.0735
-0.131,-0.1035,0.0275,0.1175,-0.079,-0.0385,-0.019,-0.041,0.093,0.2,0.2525,0.228,0.0075,0.169,-0.0775
-0.1285,-0.096,0.0325,0.112,-0.08,-0.032,-0.016,-0.0375,0.0995,0.2055,0.258,0.2305,0.003,0.1665,-0.0795
-0.1255,-0.089,0.0365,0.1075,-0.0805,-0.0265,-0.0185,-0.036,0.1015,0.2075,0.2595,0.2335,0.004,0.1645,-0.0815
-0.1365,-0.085,0.052,0.1105,-0.094,-0.0165,-0.014,-0.0355,0.102,0.2095,0.2645,0.238,0.0065,0.1665,-0.0815
-0.163,-0.0945,0.069,0.1285,-0.1155,-0.013,-0.0105,-0.033,0.1015,0.2115,0.265,0.2405,0.0085,0.1715,-0.08
-0.157,-0.094,0.063,0.1255,-0.1095,-0.0155,-0.0115,-0.034,0.103,0.2115,0.265,0.2415,0.012,0.1735,-0.0765
-0.1425,-0.0965,0.046,0.1195,-0.094,-0.0255,-0.0175,-0.036,0.099,0.2065,0.2595,0.236,0.0155,0.167,-0.0705
-0.115,-0.0975,0.018,0.1065,-0.0665,-0.04,-0.026,-0.041,0.0935,0.201,0.252,0.228,0.0165,0.1605,-0.072
-0.1005,-0.0945,0.006,0.0975,-0.0525,-0.0445,-0.0255,-0.0385,0.0935,0.1995,0.2515,0.2265,0.0165,0.157,-0.0765
-0.111,-0.0975,0.0135,0.104,-0.062,-0.042,-0.022,-0.032,0.0965,0.2015,0.2505,0.226,0.0165,0.1485,-0.077
-0.116,-0.1095,0.0065,0.113,-0.061,-0.052,-0.0215,-0.035,0.091,0.195,0.244,0.219,0.0165,0.1425,-0.076
-0.1075,-0.1075,0.0,0.1075,-0.0535,-0.054,-0.0225,-0.036,0.09,0.1945,0.2465,0.2215,0.018,0.1445,-0.074
-0.1105,-0.1065,0.004,0.1085,-0.057,-0.0515,-0.0245,-0.039,0.088,0.191,0.244,0.2225,0.019,0.1455,-0.0705
-0.1105,-0.1075,0.0035,0.109,-0.057,-0.052,-0.0165,-0.0345,0.091,0.192,0.245,0.224,0.0185,0.1395,-0.0705
-0.1075,-0.104,0.0035,0.106,-0.055,-0.0505,-0.01,-0.029,0.094,0.198,0.251,0.228,0.0135,0.142,-0.0705
-0.118,-0.115,0.003,0.1165,-0.06,-0.0565,-0.015,-0.0345,0.0885,0.193,0.245,0.223,0.012,0.151,-0.075
-0.1185,-0.1175,0.001,0.118,-0.0595,-0.0585,-0.01,-0.033,0.0885,0.1925,0.244,0.223,0.0145,0.147,-0.0775
-0.1185,-0.1155,0.003,0.117,-0.061,-0.0565,-0.002,-0.03,0.0935,0.196,0.248,0.225,0.0135,0.1495,-0.077
-0.129,-0.1245,0.0045,0.127,-0.0665,-0.06,-0.0015,-0.028,0.0945,0.1975,0.2475,0.223,0.0125,0.146,-0.0795
-0.14,-0.132,0.008,0.136,-0.074,-0.0625,0.0025,-0.0235,0.0925,0.1975,0.245,0.2215,0.011,0.1415,-0.08
-0.145,-0.136,0.009,0.1405,-0.0765,-0.064,0.0105,-0.0205,0.098,0.1985,0.245,0.2205,0.008,0.1425,-0.0795
-0.1475,-0.1425,0.005,0.1445,-0.0755,-0.069,0.02,-0.0145,0.101,0.2,0.2435,0.2205,0.008,0.13,-0.0785
-0.133,-0.1315,0.002,0.1325,-0.0675,-0.065,0.0285,-0.006,0.1045,0.2025,0.2435,0.2245,0.0105,0.135,-0.08
-0.137,-0.134,0.0035,0.1355,-0.07,-0.0655,0.0225,-0.0085,0.101,0.199,0.24,0.221,0.0095,0.1375,-0.078
-0.155,-0.1495,0.0055,0.152,-0.08,-0.072,0.0135,-0.0185,0.0925,0.1935,0.2335,0.2135,0.007,0.126,-0.074
-0.163,-0.156,0.0065,0.1595,-0.0845,-0.075,0.0185,-0.02,0.0885,0.1895,0.231,0.211,0.003,0.1195,-0.073
-0.1695,-0.1625,0.007,0.166,-0.088,-0.078,0.0235,-0.019,0.084,0.1845,0.2305,0.208,0.0005,0.112,-0.0715
-0.175,-0.1655,0.0095,0.1705,-0.092,-0.0785,0.0255,-0.021,0.079,0.181,0.228,0.2045,0.0005,0.1105,-0.0715
-0.178,-0.1665,0.0115,0.172,-0.0945,-0.0775,0.024,-0.0205,0.077,0.178,0.225,0.2005,-0.0035,0.1095,-0.0705
-0.179,-0.1715,0.0075,0.1755,-0.093,-0.0825,0.0345,-0.013,0.0815,0.18,0.225,0.1985,-0.005,0.101,-0.076
-0.1835,-0.1795,0.004,0.1815,-0.0935,-0.088,0.0415,-0.0085,0.083,0.1805,0.2235,0.1955,-0.004,0.0965,-0.0815
-0.1805,-0.1795,0.001,0.18,-0.0905,-0.0895,0.0375,-0.0085,0.082,0.179,0.221,0.1935,-0.004,0.0855,-0.081
-0.182,-0.1815,0.0005,0.1815,-0.0905,-0.091,0.0385,-0.009,0.082,0.1785,0.2205,0.1935,-0.004,0.085,-0.081
-0.182,-0.1895,-0.0075,0.186,-0.087,-0.099,0.038,-0.0115,0.0785,0.1745,0.215,0.192,-0.005,0.087,-0.079
-0.185,-0.199,-0.0145,0.192,-0.085,-0.107,0.0365,-0.014,0.073,0.17,0.2095,0.188,-0.007,0.0745,-0.075
-0.182,-0.197,-0.015,0.1895,-0.0835,-0.1065,0.035,-0.0155,0.0695,0.166,0.2065,0.1845,-0.0075,0.0785,-0.073
-0.18,-0.2005,-0.0205,0.1905,-0.0795,-0.1105,0.0375,-0.014,0.0695,0.164,0.2025,0.184,-0.008,0.0715,-0.0765
-0.1815,-0.2095,-0.028,0.1955,-0.0765,-0.119,0.04,-0.013,0.068,0.1635,0.202,0.183,-0.011,0.0655,-0.0795
-0.1775,-0.213,-0.0355,0.195,-0.0705,-0.1245,0.0405,-0.014,0.0635,0.159,0.1985,0.179,-0.012,0.0675,-0.0795
-0.182,-0.2175,-0.036,0.1995,-0.0725,-0.127,0.0445,-0.0115,0.0635,0.1585,0.1945,0.174,-0.014,0.066,-0.08
-0.188,-0.2215,-0.033,0.2045,-0.0775,-0.1275,0.049,-0.0065,0.0655,0.1615,0.194,0.1715,-0.018,0.0595,-0.0815
-0.1855,-0.2315,-0.046,0.2085,-0.0695,-0.139,0.0465,-0.0105,0.06,0.153,0.191,0.1665,-0.0185,0.0415,-0.081
-0.19,-0.236,-0.0455,0.213,-0.072,-0.141,0.048,-0.007,0.0625,0.155,0.192,0.1665,-0.0195,0.035,-0.0835
-0.2145,-0.233,-0.018,0.2235,-0.098,-0.1255,0.0575,0.001,0.068,0.163,0.199,0.1715,-0.021,0.035,-0.085
-0.21,-0.2295,-0.0195,0.2195,-0.095,-0.125,0.057,-0.0015,0.0645,0.1575,0.2005,0.1735,-0.0185,0.049,-0.0815
-0.189,-0.2225,-0.0335,0.2055,-0.0775,-0.128,0.049,-0.001,0.066,0.1585,0.2,0.1735,-0.0175,0.056,-0.08
-0.194,-0.221,-0.027,0.2075,-0.083,-0.1245,0.053,-0.002,0.066,0.161,0.2015,0.1695,-0.019,0.053,-0.0785
-0.2095,-0.234,-0.0245,0.2215,-0.092,-0.1295,0.0525,-0.0095,0.0595,0.1535,0.194,0.1655,-0.021,0.053,-0.079
-0.211,-0.2365,-0.0255,0.224,-0.0925,-0.1315,0.0435,-0.0125,0.0555,0.1495,0.189,0.163,-0.0215,0.0505,-0.08
-0.2185,-0.232,-0.014,0.225,-0.102,-0.1235,0.049,-0.0085,0.059,0.1525,0.1905,0.166,-0.0205,0.0465,-0.08
-0.2105,-0.2295,-0.019,0.22,-0.0955,-0.1245,0.0475,-0.011,0.053,0.146,0.1855,0.1625,-0.0215,0.0425,-0.0795
-0.2155,-0.226,-0.0105,0.2205,-0.102,-0.1185,0.0495,-0.0055,0.0565,0.15,0.186,0.162,-0.023,0.042,-0.0805
-0.241,-0.2305,0.0105,0.2355,-0.1255,-0.1105,0.057,-0.0025,0.067,0.158,0.194,0.1675,-0.0245,0.0405,-0.0825
-0.226,-0.2295,-0.0035,0.228,-0.111,-0.117,0.0515,-0.0085,0.062,0.154,0.1935,0.165,-0.0225,0.0475,-0.0825
-0.2255,-0.233,-0.008,0.2295,-0.1085,-0.121,0.0505,-0.007,0.0615,0.154,0.1945,0.168,-0.021,0.045,-0.08
-0.2185,-0.2275,-0.009,0.223,-0.1045,-0.1185,0.052,-0.0075,0.06,0.154,0.1955,0.17,-0.02,0.045,-0.079
-0.2065,-0.22,-0.013,0.2135,-0.0965,-0.1165,0.0535,-0.005,0.0625,0.156,0.1975,0.1705,-0.0205,0.051,-0.081
-0.193,-0.219,-0.026,0.206,-0.083,-0.123,0.052,-0.008,0.061,0.153,0.195,0.1675,-0.0225,0.0495,-0.081
-0.189,-0.2215,-0.0325,0.205,-0.078,-0.127,0.0475,-0.0095,0.059,0.149,0.191,0.1665,-0.018,0.0415,-0.0785
-0.2095,-0.238,-0.0285,0.224,-0.0905,-0.1335,0.045,-0.011,0.059,0.148,0.19,0.1635,-0.02,0.0395,-0.0775
-0.1955,-0.237,-0.0415,0.216,-0.077,-0.139,0.043,-0.017,0.0505,0.142,0.183,0.1545,-0.024,0.044,-0.078
-0.1935,-0.2265,-0.033,0.21,-0.08,-0.13,0.049,-0.0095,0.0585,0.149,0.192,0.1565,-0.0255,0.0425,-0.077
-0.1875,-0.216,-0.0285,0.2015,-0.079,-0.1225,0.055,-0.005,0.0655,0.1575,0.197,0.169,-0.0225,0.0475,-0.078
-0.1725,-0.215,-0.0425,0.1935,-0.0645,-0.129,0.045,-0.0155,0.0535,0.1455,0.1845,0.166,-0.019,0.042,-0.0765
-0.1875,-0.2255,-0.0375,0.2065,-0.0745,-0.1315,0.042,-0.0175,0.0515,0.143,0.184,0.1585,-0.0225,0.039,-0.078
-0.203,-0.231,-0.028,0.217,-0.0875,-0.13,0.047,-0.0155,0.054,0.147,0.184,0.1615,-0.0205,0.0465,-0.0785
-0.214,-0.2355,-0.0215,0.2245,-0.096,-0.1285,0.0425,-0.018,0.0505,0.143,0.183,0.1605,-0.0185,0.0505,-0.0775
-0.2195,-0.238,-0.0185,0.229,-0.1005,-0.1285,0.0385,-0.0195,0.051,0.1435,0.182,0.159,-0.0225,0.048,-0.0805
-0.2235,-0.238,-0.0145,0.2305,-0.1045,-0.1265,0.0395,-0.018,0.0505,0.1435,0.1815,0.1565,-0.024,0.051,-0.082
-0.22,-0.2315,-0.0115,0.226,-0.104,-0.1215,0.037,-0.018,0.0515,0.1435,0.1825,0.1575,-0.0225,0.0555,-0.08
-0.2065,-0.2225,-0.016,0.2145,-0.095,-0.1195,0.037,-0.0175,0.054,0.1455,0.185,0.1615,-0.0215,0.055,-0.08
-0.1975,-0.2125,-0.015,0.205,-0.091,-0.114,0.044,-0.011,0.0575,0.1485,0.1885,0.1655,-0.0215,0.0585,-0.082
-0.204,-0.218,-0.0135,0.211,-0.095,-0.116,0.0415,-0.016,0.0535,0.144,0.186,0.1645,-0.0215,0.05,-0.08
-0.214,-0.228,-0.014,0.221,-0.1,-0.1215,0.0385,-0.018,0.052,0.143,0.1855,0.1635,-0.0205,0.047,-0.08
-0.2175,-0.232,-0.0145,0.225,-0.1015,-0.1235,0.042,-0.0185,0.05,0.1425,0.184,0.1635,-0.02,0.0505,-0.078
-0.212,-0.23,-0.018,0.221,-0.097,-0.124,0.043,-0.024,0.047,0.1415,0.183,0.161,-0.0215,0.0485,-0.0775
-0.1965,-0.221,-0.025,0.209,-0.0855,-0.1235,0.0445,-0.021,0.0535,0.1475,0.187,0.162,-0.0215,0.0435,-0.081
-0.203,-0.2315,-0.0285,0.217,-0.087,-0.1305,0.0395,-0.0255,0.0485,0.14,0.181,0.1615,-0.021,0.043,-0.0805
-0.219,-0.2465,-0.0275,0.2325,-0.0955,-0.1375,0.0375,-0.027,0.046,0.136,0.1775,0.156,-0.022,0.042,-0.08
-0.209,-0.24,-0.0305,0.2245,-0.089,-0.1355,0.0425,-0.0225,0.0505,0.141,0.1815,0.1575,-0.022,0.0435,-0.0795
-0.1995,-0.2345,-0.035,0.217,-0.082,-0.135,0.041,-0.024,0.05,0.141,0.1835,0.16,-0.02,0.0445,-0.0775
-0.1995,-0.233,-0.0335,0.216,-0.0825,-0.1335,0.044,-0.0205,0.0525,0.145,0.185,0.161,-0.02,0.0415,-0.078
-0.197,-0.2305,-0.0335,0.214,-0.0815,-0.1325,0.046,-0.017,0.055,0.1475,0.187,0.165,-0.0185,0.044,-0.0795
-0.2015,-0.2305,-0.029,0.216,-0.086,-0.13,0.0435,-0.018,0.0535,0.1455,0.186,0.1645,-0.019,0.0455,-0.0785
-0.2,-0.223,-0.0225,0.2115,-0.0885,-0.123,0.0445,-0.017,0.054,0.147,0.1865,0.165,-0.019,0.0445,-0.079
-0.2,-0.223,-0.023,0.212,-0.0885,-0.1235,0.046,-0.015,0.0555,0.1485,0.188,0.165,-0.0175,0.041,-0.078
-0.209,-0.229,-0.02,0.219,-0.094,-0.125,0.044,-0.0175,0.053,0.1445,0.184,0.162,-0.021,0.0435,-0.0765
-0.207,-0.2205,-0.0135,0.214,-0.0965,-0.1175,0.0445,-0.0175,0.0545,0.1455,0.184,0.1645,-0.0205,0.053,-0.074
-0.208,-0.216,-0.008,0.212,-0.0995,-0.1125,0.048,-0.017,0.0545,0.1455,0.186,0.165,-0.022,0.058,-0.073
-0.218,-0.222,-0.004,0.22,-0.1065,-0.1135,0.0515,-0.017,0.053,0.144,0.183,0.1595,-0.0255,0.052,-0.081
-0.217,-0.216,0.001,0.2165,-0.109,-0.1075,0.0565,-0.0145,0.057,0.148,0.184,0.16,-0.0235,0.0595,-0.0855
-0.217,-0.2095,0.0075,0.213,-0.112,-0.101,0.062,-0.012,0.062,0.1525,0.187,0.1615,-0.028,0.0675,-0.093
-0.2285,-0.2165,0.012,0.2225,-0.12,-0.1025,0.071,-0.0095,0.062,0.1505,0.1845,0.157,-0.0365,0.0605,-0.0995
-0.2325,-0.224,0.009,0.2285,-0.1205,-0.108,0.086,-0.0015,0.064,0.149,0.1825,0.1535,-0.042,0.048,-0.104
-0.245,-0.2375,0.0075,0.241,-0.126,-0.115,0.0995,0.0045,0.065,0.145,0.1775,0.144,-0.051,0.0395,-0.1055
-0.26,-0.2485,0.0115,0.254,-0.1355,-0.1185,0.1175,0.0105,0.059,0.1355,0.1695,0.1345,-0.06,0.0405,-0.1035
-0.265,-0.2565,0.008,0.261,-0.136,-0.1245,0.1345,0.0235,0.0595,0.1285,0.1605,0.1275,-0.0675,0.036,-0.1055
-0.274,-0.275,-0.001,0.2745,-0.1365,-0.138,0.1515,0.0375,0.052,0.111,0.142,0.112,-0.082,0.0265,-0.105
-0.2825,-0.297,-0.0145,0.2895,-0.134,-0.156,0.179,0.0575,0.045,0.095,0.127,0.0975,-0.0935,0.0095,-0.1005
-0.2925,-0.3205,-0.0285,0.3065,-0.132,-0.175,0.205,0.081,0.044,0.0825,0.1125,0.0825,-0.104,-0.0175,-0.0945
-0.303,-0.34,-0.037,0.3215,-0.1325,-0.189,0.227,0.1005,0.0385,0.0645,0.0935,0.0625,-0.1195,-0.0405,-0.092
-0.318,-0.359,-0.041,0.3385,-0.1385,-0.2005,0.25,0.118,0.033,0.0515,0.0785,0.049,-0.132,-0.0555,-0.0855
-0.323,-0.3755,-0.0525,0.3495,-0.135,-0.2145,0.2785,0.1485,0.0395,0.045,0.065,0.04,-0.138,-0.0695,-0.0875
-0.332,-0.3905,-0.0585,0.361,-0.1365,-0.2245,0.3075,0.188,0.0615,0.0465,0.0565,0.027,-0.1445,-0.0825,-0.094
-0.344,-0.402,-0.058,0.373,-0.1425,-0.2305,0.3355,0.223,0.085,0.0525,0.0505,0.0165,-0.1505,-0.097,-0.102
-0.3585,-0.417,-0.0585,0.388,-0.1495,-0.238,0.3625,0.2605,0.112,0.064,0.0455,0.008,-0.1545,-0.115,-0.1145
-0.3685,-0.4275,-0.059,0.398,-0.1545,-0.2435,0.386,0.3015,0.1565,0.088,0.048,0.0035,-0.1555,-0.1245,-0.123
-0.363,-0.432,-0.069,0.3975,-0.1465,-0.251,0.409,0.3485,0.2055,0.1115,0.05,-0.0015,-0.1525,-0.129,-0.1325
-0.362,-0.446,-0.0845,0.404,-0.1385,-0.2655,0.441,0.4045,0.254,0.1285,0.044,-0.011,-0.1545,-0.1375,-0.143
-0.352,-0.4605,-0.1085,0.406,-0.1215,-0.285,0.4745,0.4675,0.309,0.146,0.0345,-0.021,-0.1545,-0.155,-0.1525
-0.337,-0.4695,-0.1325,0.403,-0.102,-0.301,0.488,0.521,0.3665,0.1765,0.036,-0.0225,-0.1425,-0.177,-0.1585
-0.3105,-0.465,-0.1545,0.3875,-0.078,-0.31,0.4915,0.5615,0.422,0.211,0.045,-0.0195,-0.1285,-0.1855,-0.1655
-0.296,-0.477,-0.181,0.3865,-0.057,-0.3295,0.505,0.6125,0.472,0.232,0.0445,-0.0255,-0.1235,-0.199,-0.1675
-0.273,-0.489,-0.216,0.381,-0.028,-0.353,0.513,0.665,0.53,0.259,0.048,-0.03,-0.1145,-0.2145,-0.169
-0.2405,-0.486,-0.2455,0.3635,0.003,-0.366,0.5115,0.7115,0.5995,0.302,0.064,-0.024,-0.0965,-0.2175,-0.177
-0.211,-0.487,-0.276,0.349,0.0325,-0.3815,0.5145,0.7785,0.687,0.3545,0.083,-0.0165,-0.074,-0.222,-0.1865
-0.1675,-0.4835,-0.316,0.3255,0.0745,-0.4,0.5075,0.832,0.7585,0.3985,0.1,-0.008,-0.0485,-0.234,-0.1905
-0.1315,-0.4865,-0.355,0.309,0.112,-0.421,0.5075,0.896,0.855,0.4585,0.119,-0.001,-0.0225,-0.2505,-0.1985
-0.0885,-0.4905,-0.4015,0.2895,0.1565,-0.446,0.521,0.976,0.977,0.528,0.134,0.0,0.0015,-0.2645,-0.213
-0.049,-0.484,-0.435,0.2665,0.193,-0.4595,0.522,1.033,1.082,0.595,0.155,0.009,0.0265,-0.2635,-0.2255
-0.018,-0.4785,-0.4605,0.248,0.2215,-0.4695,0.519,1.0995,1.194,0.666,0.18,0.0225,0.055,-0.266,-0.234
0.023,-0.472,-0.495,0.2245,0.259,-0.484,0.5065,1.153,1.2885,0.7285,0.203,0.0385,0.082,-0.277,-0.2375
0.072,-0.4555,-0.5275,0.1915,0.3,-0.492,0.485,1.197,1.3885,0.8,0.233,0.0595,0.116,-0.2665,-0.2395
0.1075,-0.44,-0.5475,0.166,0.328,-0.494,0.4645,1.2425,1.4855,0.87,0.263,0.079,0.151,-0.27,-0.2445
0.1535,-0.4265,-0.58,0.1365,0.367,-0.5035,0.432,1.2575,1.562,0.935,0.2905,0.0995,0.1875,-0.279,-0.246
0.215,-0.4065,-0.6215,0.096,0.4185,-0.514,0.397,1.269,1.6575,1.012,0.32,0.119,0.2245,-0.2665,-0.2505
0.242,-0.392,-0.634,0.075,0.438,-0.513,0.375,1.2855,1.7385,1.069,0.3435,0.136,0.2495,-0.255,-0.254
0.271,-0.3885,-0.6595,0.0585,0.4655,-0.5245,0.35,1.2745,1.7645,1.0775,0.3385,0.1425,0.264,-0.246,-0.2375
0.302,-0.379,-0.681,0.0385,0.4915,-0.5305,0.318,1.2605,1.792,1.0865,0.3365,0.148,0.275,-0.2475,-0.226
0.315,-0.3635,-0.6785,0.024,0.497,-0.521,0.2825,1.2285,1.8115,1.1,0.3435,0.159,0.285,-0.2305,-0.22
0.325,-0.3425,-0.668,0.0085,0.4965,-0.5055,0.2365,1.159,1.8,1.108,0.3505,0.176,0.297,-0.204,-0.212
0.3155,-0.32,-0.6355,0.002,0.476,-0.478,0.1995,1.089,1.784,1.1175,0.3655,0.2005,0.3075,-0.1905,-0.2025
0.3185,-0.299,-0.618,-0.01,0.4685,-0.459,0.1465,0.9705,1.719,1.0895,0.367,0.216,0.312,-0.1695,-0.1815
0.3375,-0.2765,-0.614,-0.0305,0.476,-0.4455,0.0825,0.833,1.6195,1.042,0.362,0.228,0.313,-0.153,-0.1575
0.3445,-0.2655,-0.61,-0.0395,0.4775,-0.438,0.0355,0.7295,1.52,0.9885,0.3505,0.2355,0.3115,-0.1485,-0.126
0.3445,-0.2685,-0.613,-0.038,0.479,-0.441,-0.014,0.62,1.409,0.9185,0.324,0.2245,0.302,-0.143,-0.089
0.345,-0.2745,-0.6195,-0.035,0.4825,-0.447,-0.043,0.5105,1.283,0.83,0.2885,0.209,0.2785,-0.1275,-0.0565
0.3245,-0.28,-0.6045,-0.022,0.465,-0.4425,-0.0755,0.355,1.072,0.7015,0.25,0.196,0.2485,-0.1135,-0.0125
0.2815,-0.284,-0.5655,0.0015,0.4235,-0.425,-0.1165,0.1455,0.782,0.5495,0.2135,0.1905,0.2135,-0.1085,0.042
0.228,-0.294,-0.522,0.033,0.3755,-0.4085,-0.1365,-0.0375,0.4735,0.3655,0.161,0.1875,0.1725,-0.106,0.099
0.18,-0.3155,-0.496,0.068,0.3385,-0.406,-0.1415,-0.152,0.2085,0.17,0.0975,0.165,0.129,-0.106,0.1555
0.1455,-0.3555,-0.5015,0.105,0.3235,-0.4285,-0.1315,-0.222,-0.017,-0.0135,0.029,0.1315,0.081,-0.1285,0.2215
0.117,-0.3955,-0.513,0.1395,0.315,-0.4545,-0.1205,-0.282,-0.213,-0.1795,-0.0395,0.101,0.036,-0.1575,0.2795
0.122,-0.433,-0.5555,0.1555,0.339,-0.4945,-0.1195,-0.3315,-0.355,-0.3065,-0.1025,0.06,0.001,-0.1775,0.318
0.1275,-0.4665,-0.594,0.1695,0.361,-0.5305,-0.117,-0.361,-0.463,-0.403,-0.153,0.03,-0.024,-0.1935,0.3515
0.118,-0.4745,-0.592,0.1785,0.355,-0.5335,-0.1175,-0.3775,-0.5095,-0.443,-0.167,0.0305,-0.031,-0.196,0.3695
0.1105,-0.4875,-0.598,0.1885,0.3545,-0.543,-0.1165,-0.377,-0.5135,-0.45,-0.179,0.024,-0.038,-0.2045,0.3825
0.1105,-0.508,-0.6185,0.199,0.3645,-0.5635,-0.1125,-0.376,-0.5175,-0.461,-0.201,0.0065,-0.048,-0.2145,0.389
0.092,-0.5365,-0.6285,0.222,0.3605,-0.5825,-0.094,-0.3795,-0.5435,-0.4885,-0.23,-0.0145,-0.067,-0.2325,0.4025
0.053,-0.5685,-0.6215,0.2575,0.3375,-0.595,-0.052,-0.3715,-0.568,-0.514,-0.2575,-0.034,-0.0905,-0.2505,0.412
0.0805,-0.589,-0.669,0.254,0.375,-0.629,-0.027,-0.3705,-0.6,-0.545,-0.29,-0.064,-0.11,-0.268,0.423
0.0835,-0.629,-0.712,0.273,0.398,-0.671,0.0,-0.351,-0.632,-0.5825,-0.3305,-0.1015,-0.133,-0.307,0.4445
0.047,-0.667,-0.714,0.31,0.381,-0.691,0.0265,-0.3335,-0.654,-0.607,-0.3545,-0.1235,-0.1505,-0.3285,0.4545
0.051,-0.674,-0.7255,0.3115,0.3885,-0.7,0.044,-0.327,-0.681,-0.6275,-0.368,-0.1365,-0.1635,-0.3305,0.4575
0.0435,-0.669,-0.7125,0.313,0.378,-0.691,0.0665,-0.3095,-0.692,-0.636,-0.3735,-0.1395,-0.1755,-0.324,0.4565
0.006,-0.6845,-0.69,0.3395,0.348,-0.6875,0.103,-0.2885,-0.702,-0.6475,-0.385,-0.153,-0.1965,-0.331,0.458
0.002,-0.6775,-0.6795,0.338,0.341,-0.679,0.1455,-0.261,-0.694,-0.642,-0.388,-0.166,-0.214,-0.336,0.4465
-0.0005,-0.659,-0.658,0.33,0.329,-0.6585,0.1745,-0.234,-0.6735,-0.623,-0.38,-0.1665,-0.2245,-0.3115,0.424
-0.045,-0.6705,-0.625,0.358,0.29,-0.648,0.2025,-0.208,-0.6575,-0.6105,-0.3745,-0.169,-0.2325,-0.293,0.401
-0.0425,-0.6615,-0.6185,0.352,0.288,-0.6405,0.217,-0.196,-0.6425,-0.597,-0.37,-0.1745,-0.2385,-0.2725,0.3715
-0.0575,-0.6605,-0.6025,0.359,0.273,-0.632,0.243,-0.184,-0.6345,-0.591,-0.372,-0.182,-0.255,-0.252,0.3515
-0.071,-0.647,-0.576,0.359,0.2525,-0.6115,0.285,-0.1505,-0.6165,-0.578,-0.362,-0.1765,-0.265,-0.2365,0.3425
-0.0715,-0.6215,-0.55,0.3465,0.2395,-0.586,0.322,-0.114,-0.5945,-0.56,-0.348,-0.1685,-0.2705,-0.2235,0.326
-0.0845,-0.5955,-0.511,0.34,0.2135,-0.5535,0.371,-0.068,-0.56,-0.533,-0.33,-0.16,-0.277,-0.207,0.2995
-0.1115,-0.585,-0.474,0.348,0.1815,-0.5295,0.41,-0.0315,-0.5225,-0.5035,-0.3135,-0.154,-0.2785,-0.1785,0.268
-0.1585,-0.58,-0.422,0.369,0.132,-0.501,0.4495,-0.0005,-0.482,-0.468,-0.293,-0.1435,-0.282,-0.143,0.2275
-0.19,-0.5545,-0.3645,0.3725,0.0875,-0.46,0.5095,0.041,-0.428,-0.4205,-0.262,-0.128,-0.2865,-0.106,0.1765
-0.2335,-0.5365,-0.303,0.385,0.035,-0.42,0.57,0.081,-0.385,-0.3875,-0.241,-0.119,-0.295,-0.074,0.134
-0.256,-0.506,-0.25,0.381,-0.0025,-0.378,0.6235,0.1085,-0.3645,-0.363,-0.2215,-0.1095,-0.3085,-0.0515,0.1005
-0.286,-0.5115,-0.226,0.3985,-0.03,-0.369,0.6675,0.127,-0.3675,-0.3585,-0.2185,-0.112,-0.318,-0.0395,0.0795
-0.3015,-0.502,-0.2005,0.4015,-0.0505,-0.3515,0.7235,0.1725,-0.3435,-0.343,-0.2075,-0.1085,-0.3235,-0.0285,0.0575
-0.3115,-0.4855,-0.174,0.3985,-0.0685,-0.33,0.786,0.216,-0.3175,-0.32,-0.1905,-0.107,-0.3305,-0.0345,0.0315
-0.345,-0.4865,-0.1415,0.415,-0.1015,-0.314,0.838,0.2365,-0.3175,-0.3165,-0.185,-0.105,-0.3385,-0.032,0.0145
-0.3635,-0.485,-0.1215,0.424,-0.121,-0.3035,0.891,0.2555,-0.3185,-0.3155,-0.179,-0.101,-0.3485,-0.01,-0.0035
-0.3955,-0.5075,-0.112,0.451,-0.1415,-0.31,0.938,0.2745,-0.323,-0.317,-0.1775,-0.106,-0.3545,-0.014,-0.014
-0.4275,-0.522,-0.094,0.4745,-0.1665,-0.308,0.956,0.275,-0.329,-0.316,-0.175,-0.1095,-0.356,-0.0265,-0.0215
-0.432,-0.5215,-0.0895,0.4765,-0.171,-0.3055,0.995,0.288,-0.3215,-0.3065,-0.168,-0.1095,-0.363,-0.0285,-0.035
-0.4425,-0.511,-0.068,0.476,-0.187,-0.29,1.028,0.2945,-0.3105,-0.2895,-0.154,-0.1,-0.3675,-0.0215,-0.0535
-0.4535,-0.4925,-0.039,0.4725,-0.207,-0.266,1.0275,0.2715,-0.31,-0.2745,-0.135,-0.0885,-0.369,-0.0075,-0.0735
-0.473,-0.481,-0.008,0.4765,-0.232,-0.245,1.042,0.259,-0.3065,-0.2595,-0.118,-0.077,-0.372,0.006,-0.1
-0.5035,-0.479,0.024,0.4905,-0.2635,-0.228,1.0315,0.2365,-0.304,-0.242,-0.1025,-0.068,-0.37,0.0235,-0.127
-0.512,-0.4655,0.0465,0.4885,-0.279,-0.2095,1.0475,0.2265,-0.295,-0.226,-0.0875,-0.0585,-0.372,0.039,-0.1475
-0.531,-0.4495,0.0815,0.49,-0.306,-0.1845,1.071,0.2245,-0.281,-0.2065,-0.0715,-0.0455,-0.3775,0.0425,-0.171
-0.534,-0.434,0.1,0.4835,-0.3165,-0.167,1.075,0.213,-0.269,-0.188,-0.0585,-0.036,-0.376,0.054,-0.1885
-0.5365,-0.4305,0.106,0.483,-0.321,-0.1625,1.1125,0.2105,-0.262,-0.178,-0.053,-0.0345,-0.3765,0.0625,-0.208
-0.5615,-0.4305,0.131,0.4955,-0.346,-0.15,1.1425,0.205,-0.254,-0.165,-0.0405,-0.0255,-0.3765,0.062,-0.2235
-0.5795,-0.4215,0.158,0.5,-0.3685,-0.132,1.1685,0.192,-0.2445,-0.151,-0.028,-0.018,-0.3765,0.07,-0.2405
-0.5945,-0.414,0.1805,0.5035,-0.387,-0.117,1.191,0.1845,-0.2365,-0.138,-0.0185,-0.016,-0.38,0.082,-0.2625
-0.6005,-0.4035,0.197,0.5015,-0.3985,-0.1035,1.209,0.175,-0.2345,-0.1305,-0.008,-0.011,-0.38,0.093,-0.2745
-0.616,-0.4,0.216,0.5075,-0.4155,-0.0925,1.2295,0.161,-0.2395,-0.1285,-0.0015,-0.0065,-0.3845,0.095,-0.284
-0.6245,-0.404,0.2205,0.514,-0.4225,-0.092,1.2425,0.143,-0.2525,-0.134,-0.0035,-0.0075,-0.39,0.1015,-0.291
-0.6175,-0.3985,0.219,0.5075,-0.418,-0.09,1.2445,0.1255,-0.269,-0.1415,-0.004,-0.0105,-0.392,0.1045,-0.2925
-0.607,-0.3835,0.224,0.4945,-0.4155,-0.08,1.2455,0.1245,-0.272,-0.1365,0.003,-0.0035,-0.39,0.099,-0.2835
-0.6085,-0.3995,0.209,0.5035,-0.4085,-0.0955,1.2245,0.107,-0.286,-0.146,-0.0055,-0.005,-0.3805,0.092,-0.2695
-0.621,-0.432,0.189,0.526,-0.4045,-0.1215,1.1895,0.0855,-0.308,-0.162,-0.0195,-0.014,-0.3715,0.087,-0.2545
-0.6105,-0.4345,0.176,0.522,-0.393,-0.1295,1.1685,0.081,-0.3135,-0.1675,-0.023,-0.0145,-0.3645,0.0805,-0.2415
-0.5915,-0.424,0.1675,0.5075,-0.3795,-0.1285,1.1415,0.079,-0.312,-0.1625,-0.019,-0.0085,-0.3555,0.0645,-0.227
-0.5705,-0.409,0.1615,0.4895,-0.366,-0.124,1.106,0.0805,-0.306,-0.15,-0.007,0.001,-0.343,0.0625,-0.2155
-0.558,-0.4075,0.1505,0.4825,-0.354,-0.1285,1.038,0.0715,-0.305,-0.1485,-0.002,0.005,-0.328,0.056,-0.1995
-0.5465,-0.4095,0.137,0.4775,-0.3415,-0.1365,0.9565,0.0635,-0.304,-0.1435,0.0045,0.0115,-0.309,0.0415,-0.1775
-0.529,-0.401,0.1275,0.4645,-0.328,-0.137,0.878,0.0505,-0.297,-0.133,0.013,0.019,-0.2915,0.0355,-0.163
-0.5025,-0.39,0.1125,0.446,-0.3075,-0.139,0.7945,0.0335,-0.289,-0.123,0.022,0.0245,-0.276,0.035,-0.15
-0.479,-0.3635,0.1155,0.421,-0.297,-0.1245,0.7295,0.0265,-0.2775,-0.108,0.037,0.041,-0.26,0.0455,-0.14
-0.4675,-0.343,0.1245,0.405,-0.296,-0.1095,0.656,0.0095,-0.272,-0.098,0.0465,0.0515,-0.247,0.0545,-0.1285
-0.436,-0.331,0.1055,0.3835,-0.2705,-0.113,0.5845,-0.005,-0.2625,-0.089,0.054,0.0545,-0.2335,0.0545,-0.1185
-0.4195,-0.324,0.096,0.372,-0.2575,-0.1145,0.5305,-0.011,-0.2495,-0.076,0.065,0.0635,-0.2175,0.046,-0.111
-0.421,-0.313,0.108,0.367,-0.264,-0.103,0.474,-0.016,-0.234,-0.061,0.0785,0.076,-0.204,0.05,-0.104
-0.415,-0.291,0.124,0.353,-0.2695,-0.0835,0.4295,-0.0185,-0.2165,-0.043,0.092,0.088,-0.193,0.066,-0.1045
-0.389,-0.2695,0.12,0.3295,-0.254,-0.075,0.383,-0.0255,-0.199,-0.026,0.104,0.097,-0.1785,0.077,-0.1045
-0.351,-0.254,0.097,0.3025,-0.224,-0.079,0.327,-0.0405,-0.1885,-0.018,0.1075,0.0995,-0.164,0.0825,-0.104
-0.3365,-0.2385,0.098,0.2875,-0.217,-0.0705,0.282,-0.0535,-0.18,-0.008,0.1145,0.1085,-0.1515,0.0825,-0.1035
-0.344,-0.2215,0.123,0.283,-0.2335,-0.0495,0.2515,-0.057,-0.1595,0.014,0.1355,0.1255,-0.1415,0.086,-0.1
-0.336,-0.2205,0.116,0.278,-0.226,-0.052,0.2055,-0.074,-0.1495,0.022,0.1415,0.13,-0.13,0.0905,-0.0965
-0.306,-0.212,0.0945,0.259,-0.2,-0.059,0.1645,-0.0915,-0.146,0.027,0.145,0.136,-0.118,0.0955,-0.0915
-0.3105,-0.2015,0.109,0.256,-0.2095,-0.0465,0.1425,-0.097,-0.132,0.042,0.1615,0.149,-0.109,0.096,-0.0875
-0.3055,-0.197,0.108,0.251,-0.2065,-0.045,0.1085,-0.11,-0.1255,0.048,0.1655,0.153,-0.0995,0.0945,-0.0825
-0.267,-0.188,0.0785,0.2275,-0.1725,-0.055,0.079,-0.1235,-0.121,0.0505,0.1645,0.1515,-0.093,0.091,-0.082
-0.2585,-0.1825,0.076,0.2205,-0.167,-0.0535,0.066,-0.1265,-0.1095,0.0605,0.174,0.16,-0.085,0.085,-0.0815
-0.2555,-0.176,0.079,0.2155,-0.167,-0.0485,0.056,-0.1285,-0.107,0.0655,0.181,0.1635,-0.0785,0.087,-0.0785
-0.2295,-0.166,0.0635,0.198,-0.1465,-0.0515,0.045,-0.1315,-0.1025,0.069,0.1855,0.1605,-0.0745,0.0885,-0.079
-0.2335,-0.1705,0.063,0.202,-0.148,-0.054,0.0385,-0.132,-0.0935,0.075,0.186,0.1635,-0.07,0.09,-0.078
-0.243,-0.18,0.063,0.2115,-0.1525,-0.059,0.0295,-0.129,-0.088,0.0795,0.184,0.169,-0.062,0.087,-0.0775
-0.2105,-0.157,0.0535,0.184,-0.1315,-0.052,0.0245,-0.1255,-0.0805,0.0865,0.194,0.175,-0.055,0.0915,-0.0775
-0.2165,-0.157,0.0595,0.187,-0.138,-0.049,0.02,-0.129,-0.082,0.0845,0.193,0.1735,-0.0525,0.0905,-0.0725
-0.2365,-0.179,0.0575,0.208,-0.147,-0.061,0.009,-0.1375,-0.0875,0.0795,0.184,0.1635,-0.051,0.0805,-0.074
-0.216,-0.1685,0.048,0.1925,-0.132,-0.0605,0.006,-0.1355,-0.085,0.0825,0.187,0.163,-0.05,0.0835,-0.0705
-0.222,-0.159,0.063,0.1905,-0.1425,-0.048,0.007,-0.1255,-0.0725,0.0915,0.1965,0.1745,-0.046,0.0845,-0.0665
-0.2265,-0.1635,0.063,0.195,-0.1445,-0.0505,0.0,-0.1305,-0.0735,0.0895,0.195,0.172,-0.0435,0.0875,-0.0665
-0.2295,-0.1685,0.0615,0.199,-0.1455,-0.054,-0.0065,-0.133,-0.0765,0.0885,0.1915,0.17,-0.04,0.089,-0.0635
-0.2425,-0.175,0.0675,0.2085,-0.1545,-0.054,-0.014,-0.1345,-0.0755,0.0905,0.1905,0.17,-0.0375,0.085,-0.062
-0.219,-0.1675,0.051,0.1935,-0.135,-0.0585,-0.025,-0.139,-0.0805,0.087,0.1875,0.1675,-0.035,0.093,-0.058
-0.2075,-0.1625,0.045,0.185,-0.126,-0.0585,-0.0265,-0.14,-0.0815,0.085,0.186,0.1665,-0.033,0.0925,-0.057
-0.224,-0.1705,0.0535,0.197,-0.1385,-0.0585,-0.0285,-0.141,-0.0805,0.0865,0.1875,0.166,-0.0345,0.084,-0.0545
-0.2135,-0.1645,0.049,0.189,-0.131,-0.058,-0.0285,-0.138,-0.075,0.093,0.1925,0.1725,-0.0325,0.0865,-0.052
-0.189,-0.1585,0.0305,0.174,-0.11,-0.0645,-0.033,-0.141,-0.078,0.0885,0.1875,0.1725,-0.03,0.086,-0.0515
-0.2115,-0.1655,0.046,0.1885,-0.1285,-0.06,-0.033,-0.139,-0.077,0.0895,0.188,0.1775,-0.028,0.089,-0.051
-0.236,-0.1725,0.064,0.204,-0.1495,-0.0545,-0.0305,-0.1365,-0.073,0.095,0.1935,0.1835,-0.026,0.0885,-0.0495
-0.2165,-0.1715,0.045,0.194,-0.1305,-0.0635,-0.0355,-0.1395,-0.076,0.092,0.191,0.1785,-0.027,0.0775,-0.0505
-0.1975,-0.167,0.0305,0.182,-0.114,-0.0685,-0.042,-0.1445,-0.079,0.088,0.1865,0.1725,-0.0265,0.0855,-0.0515
-0.1995,-0.1655,0.034,0.1825,-0.1165,-0.066,-0.0405,-0.145,-0.0775,0.091,0.188,0.174,-0.027,0.0925,-0.0485
-0.197,-0.1595,0.0375,0.178,-0.117,-0.0615,-0.032,-0.138,-0.0705,0.099,0.197,0.1815,-0.027,0.082,-0.05
-0.1925,-0.1595,0.0335,0.176,-0.1125,-0.0635,-0.038,-0.136,-0.0715,0.0965,0.1955,0.183,-0.0255,0.079,-0.0485
-0.193,-0.164,0.0295,0.1785,-0.111,-0.0675,-0.045,-0.1415,-0.076,0.094,0.191,0.179,-0.0245,0.0875,-0.0505
-0.206,-0.161,0.045,0.1835,-0.125,-0.0585,-0.0495,-0.1445,-0.0745,0.0965,0.195,0.18,-0.024,0.092,-0.0495
-0.217,-0.1655,0.0515,0.1915,-0.134,-0.0575,-0.046,-0.1425,-0.077,0.094,0.1935,0.1795,-0.0245,0.092,-0.0485
-0.205,-0.165,0.04,0.185,-0.1225,-0.063,-0.041,-0.145,-0.08,0.0935,0.1915,0.177,-0.0245,0.089,-0.053
-0.2,-0.1565,0.043,0.178,-0.1215,-0.057,-0.0445,-0.143,-0.0765,0.097,0.1945,0.1815,-0.023,0.0905,-0.0515
-0.205,-0.1535,0.051,0.179,-0.128,-0.0515,-0.042,-0.139,-0.076,0.098,0.195,0.1825,-0.0225,0.0905,-0.0515
-0.2085,-0.1505,0.058,0.1795,-0.133,-0.0465,-0.041,-0.1405,-0.074,0.0995,0.1965,0.183,-0.023,0.083,-0.0535
-0.2255,-0.163,0.063,0.1945,-0.144,-0.05,-0.0445,-0.1445,-0.079,0.097,0.195,0.179,-0.023,0.087,-0.0515
-0.2155,-0.158,0.0575,0.187,-0.136,-0.0505,-0.045,-0.1425,-0.0805,0.094,0.1935,0.18,-0.021,0.092,-0.0485
-0.1905,-0.138,0.052,0.164,-0.121,-0.0435,-0.0425,-0.138,-0.0765,0.0985,0.1985,0.183,-0.0225,0.0975,-0.051
-0.2155,-0.1675,0.048,0.1915,-0.1315,-0.06,-0.054,-0.1495,-0.0875,0.089,0.188,0.1705,-0.025,0.1035,-0.0485
-0.2245,-0.1875,0.037,0.206,-0.1305,-0.0755,-0.061,-0.155,-0.095,0.0795,0.179,0.1665,-0.024,0.09,-0.0475
-0.223,-0.177,0.046,0.2,-0.1345,-0.0655,-0.0525,-0.147,-0.09,0.0865,0.1885,0.1735,-0.024,0.0805,-0.048
-0.232,-0.1735,0.0585,0.2025,-0.145,-0.0575,-0.0475,-0.1425,-0.0825,0.093,0.1925,0.1795,-0.0205,0.083,-0.0465
-0.2235,-0.1715,0.052,0.1975,-0.1375,-0.06,-0.048,-0.141,-0.08,0.095,0.193,0.1805,-0.019,0.08,-0.047
-0.2005,-0.176,0.0245,0.1885,-0.1125,-0.076,-0.0545,-0.1495,-0.09,0.087,0.185,0.171,-0.021,0.08,-0.0465
-0.182,-0.1745,0.0075,0.1785,-0.0945,-0.084,-0.0565,-0.1515,-0.0935,0.0835,0.182,0.167,-0.02,0.0775,-0.0465
-0.193,-0.1735,0.019,0.1835,-0.1055,-0.0775,-0.0535,-0.145,-0.0895,0.0885,0.186,0.1705,-0.021,0.075,-0.048
-0.2005,-0.1755,0.025,0.188,-0.1125,-0.0755,-0.0515,-0.1475,-0.089,0.0905,0.187,0.168,-0.025,0.0775,-0.047
-0.199,-0.177,0.022,0.188,-0.1105,-0.0775,-0.0505,-0.1455,-0.0885,0.091,0.19,0.1715,-0.0215,0.0765,-0.045
-0.1925,-0.173,0.0195,0.1825,-0.106,-0.077,-0.053,-0.145,-0.089,0.089,0.185,0.1745,-0.0215,0.0875,-0.044
-0.2025,-0.17,0.0325,0.1865,-0.1175,-0.069,-0.054,-0.148,-0.091,0.088,0.184,0.1695,-0.024,0.0935,-0.0455
-0.205,-0.1695,0.036,0.1875,-0.1205,-0.067,-0.055,-0.147,-0.0905,0.087,0.1835,0.1685,-0.0235,0.088,-0.0465
-0.197,-0.167,0.03,0.182,-0.113,-0.069,-0.0565,-0.1465,-0.089,0.0895,0.1845,0.171,-0.0225,0.0795,-0.0465
-0.207,-0.1705,0.0365,0.189,-0.1215,-0.0675,-0.0555,-0.145,-0.0875,0.091,0.1885,0.1705,-0.0245,0.0795,-0.0475
-0.2125,-0.169,0.0435,0.191,-0.128,-0.063,-0.056,-0.146,-0.0875,0.087,0.1855,0.1695,-0.0265,0.0905,-0.045
-0.21,-0.164,0.046,0.187,-0.128,-0.0595,-0.0565,-0.145,-0.0895,0.085,0.1855,0.1725,-0.025,0.0925,-0.043
-0.214,-0.161,0.053,0.1875,-0.1335,-0.0545,-0.0545,-0.142,-0.0865,0.089,0.191,0.175,-0.0235,0.0835,-0.042
-0.2105,-0.158,0.052,0.184,-0.131,-0.053,-0.056,-0.143,-0.086,0.088,0.1905,0.1735,-0.0195,0.0825,-0.041
-0.2215,-0.1595,0.062,0.1905,-0.1415,-0.049,-0.0535,-0.1395,-0.083,0.0885,0.1935,0.1755,-0.0205,0.083,-0.042
-0.224,-0.163,0.061,0.1935,-0.142,-0.051,-0.0545,-0.1415,-0.086,0.086,0.1905,0.1725,-0.0235,0.0835,-0.0395
-0.1915,-0.161,0.0305,0.1765,-0.1105,-0.0655,-0.062,-0.149,-0.0945,0.0785,0.1825,0.163,-0.0245,0.102,-0.041
-0.2005,-0.163,0.037,0.1815,-0.1185,-0.063,-0.0605,-0.146,-0.091,0.081,0.1855,0.1665,-0.024,0.097,-0.042
-0.205,-0.164,0.041,0.1845,-0.123,-0.062,-0.06,-0.1465,-0.091,0.0795,0.1845,0.168,-0.0225,0.0885,-0.042
-0.1985,-0.1655,0.0335,0.182,-0.1155,-0.066,-0.0625,-0.146,-0.0865,0.0815,0.1845,0.165,-0.022,0.09,-0.0445
-0.2055,-0.1725,0.033,0.1895,-0.119,-0.07,-0.0635,-0.1445,-0.0855,0.0825,0.1845,0.1645,-0.024,0.0805,-0.044
-0.201,-0.172,0.029,0.1865,-0.115,-0.0715,-0.058,-0.1455,-0.0915,0.079,0.1805,0.1585,-0.0295,0.0705,-0.043
-0.193,-0.1615,0.0315,0.1775,-0.112,-0.0655,-0.0585,-0.144,-0.0895,0.081,0.1835,0.161,-0.029,0.072,-0.0425
-0.1875,-0.159,0.0285,0.173,-0.1075,-0.0655,-0.0575,-0.141,-0.0875,0.081,0.185,0.1645,-0.025,0.0735,-0.041
-0.2025,-0.174,0.029,0.188,-0.1155,-0.0725,-0.055,-0.1415,-0.0895,0.0775,0.1795,0.1595,-0.0255,0.076,-0.041
-0.1925,-0.164,0.0285,0.1785,-0.1105,-0.068,-0.0545,-0.1375,-0.0845,0.08,0.181,0.162,-0.0275,0.086,-0.042
-0.1955,-0.1625,0.033,0.179,-0.114,-0.065,-0.0565,-0.1415,-0.088,0.077,0.1765,0.159,-0.03,0.085,-0.041
-0.204,-0.166,0.038,0.185,-0.121,-0.064,-0.059,-0.1445,-0.091,0.0725,0.169,0.1575,-0.0305,0.0875,-0.0395
-0.193,-0.154,0.039,0.1735,-0.1155,-0.058,-0.055,-0.1375,-0.083,0.0765,0.1705,0.164,-0.0285,0.0885,-0.0365
-0.2085,-0.1715,0.0365,0.19,-0.1225,-0.0675,-0.0615,-0.146,-0.089,0.071,0.1645,0.1555,-0.0275,0.082,-0.0345
-0.206,-0.166,0.0395,0.186,-0.1225,-0.0635,-0.0575,-0.1415,-0.085,0.073,0.1665,0.1565,-0.0285,0.079,-0.036
-0.2045,-0.1585,0.0465,0.1815,-0.1255,-0.0565,-0.055,-0.139,-0.0825,0.076,0.17,0.159,-0.029,0.0795,-0.0365
-0.2065,-0.1615,0.045,0.184,-0.1255,-0.0585,-0.0575,-0.1405,-0.083,0.0755,0.1685,0.1565,-0.032,0.081,-0.035
-0.201,-0.1585,0.0425,0.18,-0.1215,-0.0585,-0.055,-0.1375,-0.0805,0.0795,0.1705,0.156,-0.0325,0.082,-0.0365
-0.1985,-0.1605,0.038,0.1795,-0.1185,-0.0615,-0.0585,-0.1385,-0.0845,0.0745,0.167,0.1535,-0.028,0.0795,-0.0365
-0.198,-0.1605,0.0375,0.179,-0.1175,-0.0615,-0.057,-0.135,-0.0805,0.075,0.1685,0.157,-0.0265,0.084,-0.032
-0.1945,-0.1615,0.0335,0.178,-0.1135,-0.0645,-0.056,-0.1335,-0.0765,0.0795,0.171,0.1575,-0.026,0.086,-0.031
-0.1885,-0.1635,0.025,0.1765,-0.1065,-0.0695,-0.0565,-0.1315,-0.076,0.078,0.17,0.1555,-0.026,0.0825,-0.03
-0.187,-0.166,0.0215,0.1765,-0.104,-0.0725,-0.0555,-0.1305,-0.075,0.079,0.1715,0.1555,-0.0255,0.0815,-0.0295
-0.181,-0.165,0.016,0.173,-0.098,-0.075,-0.056,-0.1275,-0.073,0.08,0.1705,0.155,-0.0245,0.071,-0.03
-0.1905,-0.1725,0.0175,0.1815,-0.104,-0.0775,-0.056,-0.128,-0.0735,0.0795,0.17,0.154,-0.026,0.0695,-0.0295
-0.2025,-0.1815,0.0215,0.192,-0.112,-0.08,-0.0565,-0.1275,-0.0695,0.0815,0.1705,0.155,-0.027,0.0725,-0.03
-0.2075,-0.1805,0.0275,0.194,-0.117,-0.0765,-0.053,-0.1235,-0.065,0.0845,0.172,0.158,-0.025,0.0675,-0.031
-0.211,-0.18,0.031,0.1955,-0.1205,-0.075,-0.052,-0.12,-0.063,0.0855,0.174,0.159,-0.0235,0.061,-0.03
-0.2165,-0.18,0.0365,0.1985,-0.126,-0.072,-0.0505,-0.1145,-0.056,0.0905,0.177,0.161,-0.0235,0.0575,-0.031
-0.2265,-0.1755,0.051,0.201,-0.1385,-0.0625,-0.0415,-0.108,-0.0515,0.095,0.1815,0.164,-0.026,0.065,-0.032
-0.206,-0.176,0.03,0.191,-0.118,-0.0735,-0.0515,-0.1165,-0.062,0.084,0.1715,0.151,-0.0275,0.07,-0.033
-0.1845,-0.176,0.0085,0.18,-0.096,-0.084,-0.058,-0.123,-0.0665,0.0775,0.163,0.147,-0.0255,0.0655,-0.033
-0.165,-0.1715,-0.0065,0.168,-0.079,-0.089,-0.0595,-0.1215,-0.066,0.075,0.1595,0.1475,-0.0255,0.0635,-0.035
-0.1795,-0.1735,0.0055,0.1765,-0.092,-0.0845,-0.0595,-0.1185,-0.063,0.077,0.16,0.146,-0.026,0.059,-0.0345
-0.1975,-0.175,0.023,0.186,-0.11,-0.0765,-0.057,-0.114,-0.0555,0.084,0.164,0.149,-0.0245,0.0545,-0.029
-0.179,-0.1745,0.0045,0.1765,-0.0915,-0.085,-0.0635,-0.1195,-0.062,0.0775,0.155,0.1405,-0.0265,0.056,-0.0285
-0.1865,-0.18,0.0065,0.183,-0.096,-0.087,-0.064,-0.1195,-0.062,0.075,0.149,0.1365,-0.0295,0.0575,-0.026
-0.194,-0.1805,0.0135,0.1875,-0.1035,-0.084,-0.0605,-0.1135,-0.057,0.077,0.154,0.14,-0.027,0.058,-0.0265
-0.2,-0.18,0.02,0.19,-0.11,-0.08,-0.0585,-0.1105,-0.053,0.0795,0.157,0.1415,-0.026,0.053,-0.027
-0.1945,-0.182,0.0125,0.188,-0.103,-0.085,-0.0655,-0.109,-0.048,0.081,0.153,0.1375,-0.0265,0.0485,-0.023
-0.1885,-0.1835,0.005,0.186,-0.0965,-0.0895,-0.058,-0.1055,-0.0485,0.08,0.1525,0.138,-0.0275,0.0485,-0.0225
-0.2005,-0.1875,0.0125,0.194,-0.106,-0.0875,-0.0495,-0.101,-0.0455,0.0825,0.156,0.1395,-0.0285,0.0465,-0.021
-0.2025,-0.193,0.0095,0.198,-0.1055,-0.092,-0.0555,-0.1,-0.0455,0.08,0.153,0.136,-0.0275,0.0505,-0.0205
-0.1665,-0.1915,-0.0255,0.179,-0.07,-0.109,-0.064,-0.1045,-0.0525,0.072,0.1415,0.126,-0.0275,0.0585,-0.02
-0.1545,-0.1945,-0.04,0.1745,-0.057,-0.1175,-0.067,-0.1065,-0.053,0.0705,0.1385,0.1225,-0.0265,0.0535,-0.018
-0.169,-0.2005,-0.0315,0.185,-0.0685,-0.116,-0.0595,-0.0985,-0.0445,0.079,0.1465,0.1285,-0.0255,0.034,-0.0165
-0.1595,-0.198,-0.039,0.1785,-0.06,-0.119,-0.059,-0.093,-0.0375,0.0815,0.145,0.1285,-0.0245,0.0295,-0.018
-0.161,-0.1965,-0.0355,0.1785,-0.0625,-0.116,-0.0595,-0.0905,-0.0325,0.0825,0.1455,0.128,-0.0255,0.036,-0.0185
-0.1725,-0.2055,-0.033,0.189,-0.0695,-0.1195,-0.0545,-0.083,-0.03,0.083,0.145,0.128,-0.0245,0.0205,-0.017
-0.174,-0.2095,-0.0355,0.1915,-0.069,-0.123,-0.0535,-0.08,-0.0285,0.083,0.1415,0.127,-0.022,0.02,-0.0175
-0.1655,-0.21,-0.0445,0.1875,-0.0605,-0.1275,-0.061,-0.085,-0.0325,0.0765,0.1345,0.119,-0.024,0.0255,-0.0145
-0.1635,-0.2115,-0.048,0.1875,-0.0575,-0.13,-0.0605,-0.0805,-0.0275,0.0765,0.132,0.1165,-0.0235,0.0215,-0.0145
-0.148,-0.191,-0.043,0.1695,-0.0525,-0.117,-0.051,-0.0665,-0.0105,0.0905,0.1435,0.1265,-0.022,0.022,-0.0165
-0.1515,-0.1905,-0.039,0.171,-0.0555,-0.115,-0.049,-0.064,-0.009,0.0895,0.1425,0.124,-0.0225,0.0195,-0.015
-0.1655,-0.2075,-0.042,0.1865,-0.0615,-0.125,-0.053,-0.068,-0.014,0.083,0.134,0.1155,-0.023,0.0245,-0.0135
-0.1755,-0.2235,-0.048,0.1995,-0.0635,-0.136,-0.0595,-0.0675,-0.012,0.081,0.127,0.112,-0.019,0.0155,-0.0135
-0.1855,-0.233,-0.0475,0.209,-0.0685,-0.1405,-0.059,-0.0655,-0.011,0.078,0.123,0.11,-0.018,0.0,-0.011
-0.1785,-0.23,-0.051,0.2045,-0.0635,-0.1405,-0.0555,-0.061,-0.01,0.0785,0.123,0.1065,-0.022,-0.001,-0.01
-0.178,-0.231,-0.0535,0.2045,-0.062,-0.1425,-0.058,-0.058,-0.005,0.079,0.1225,0.104,-0.021,0.006,-0.0105
-0.169,-0.226,-0.057,0.1975,-0.0555,-0.142,-0.0575,-0.052,0.002,0.081,0.1225,0.1045,-0.02,0.008,-0.0065
-0.1585,-0.2265,-0.0685,0.1925,-0.045,-0.1475,-0.052,-0.0435,0.0085,0.085,0.1215,0.105,-0.021,-0.002,-0.004
-0.148,-0.2235,-0.076,0.1855,-0.0355,-0.15,-0.0485,-0.0355,0.0155,0.0885,0.1215,0.108,-0.0185,-0.0095,-0.0015
-0.1495,-0.232,-0.0825,0.191,-0.0335,-0.1575,-0.0505,-0.0355,0.0145,0.084,0.116,0.104,-0.0165,-0.0125,0.0005
-0.157,-0.2535,-0.096,0.205,-0.03,-0.175,-0.0545,-0.036,0.0145,0.081,0.1105,0.0955,-0.017,-0.0145,-0.001
-0.139,-0.245,-0.106,0.192,-0.016,-0.176,-0.051,-0.0235,0.0265,0.088,0.113,0.0975,-0.018,-0.019,0.001
-0.1295,-0.239,-0.109,0.1845,-0.01,-0.1745,-0.046,-0.014,0.037,0.0945,0.115,0.099,-0.0215,-0.027,0.0025
-0.129,-0.246,-0.1175,0.1875,-0.0055,-0.182,-0.0465,-0.0105,0.039,0.0925,0.1105,0.094,-0.0205,-0.0305,0.0035
-0.1355,-0.2555,-0.12,0.1955,-0.0075,-0.188,-0.0465,-0.009,0.0405,0.0905,0.104,0.089,-0.02,-0.0345,0.006
-0.1495,-0.272,-0.1225,0.2105,-0.013,-0.1975,-0.051,-0.0095,0.0415,0.088,0.098,0.0825,-0.02,-0.041,0.0075
-0.137,-0.2675,-0.131,0.2025,-0.0025,-0.1995,-0.0475,-0.001,0.05,0.092,0.0995,0.084,-0.017,-0.043,0.0075
-0.13,-0.259,-0.129,0.1945,0.0,-0.1945,-0.0435,0.0065,0.0615,0.098,0.103,0.0865,-0.016,-0.039,0.0095
-0.131,-0.2625,-0.1315,0.1965,0.0005,-0.1975,-0.0425,0.011,0.0665,0.098,0.0985,0.0835,-0.016,-0.043,0.01
-0.127,-0.265,-0.1385,0.196,0.006,-0.202,-0.0395,0.0205,0.0745,0.102,0.0985,0.0825,-0.017,-0.047,0.011
-0.1245,-0.265,-0.1405,0.195,0.0085,-0.203,-0.044,0.0245,0.078,0.103,0.097,0.0805,-0.018,-0.0505,0.013
-0.1175,-0.2635,-0.146,0.1905,0.0145,-0.205,-0.0395,0.03,0.0825,0.1035,0.095,0.0765,-0.0185,-0.049,0.0145
-0.114,-0.2615,-0.147,0.1875,0.017,-0.2045,-0.0325,0.04,0.092,0.107,0.0965,0.075,-0.0175,-0.047,0.0135
-0.112,-0.2605,-0.1485,0.186,0.0185,-0.2045,-0.031,0.048,0.102,0.1105,0.0985,0.076,-0.018,-0.056,0.0125
-0.1045,-0.265,-0.1605,0.185,0.0285,-0.213,-0.0325,0.0525,0.108,0.112,0.0975,0.0705,-0.018,-0.0625,0.0145
-0.1045,-0.273,-0.1685,0.189,0.0325,-0.221,-0.035,0.055,0.1085,0.1085,0.0905,0.0675,-0.016,-0.0635,0.017
-0.1025,-0.2735,-0.1715,0.188,0.035,-0.223,-0.032,0.061,0.116,0.1105,0.0885,0.0695,-0.014,-0.0635,0.021
-0.0935,-0.277,-0.184,0.1855,0.0455,-0.231,-0.03,0.07,0.1255,0.1175,0.0905,0.0685,-0.016,-0.0765,0.0205
-0.089,-0.283,-0.194,0.186,0.0525,-0.2385,-0.031,0.0735,0.1295,0.119,0.0865,0.066,-0.016,-0.0825,0.0225
-0.085,-0.286,-0.201,0.1855,0.0585,-0.244,-0.0315,0.0745,0.1335,0.1145,0.0785,0.0605,-0.0145,-0.077,0.0255
-0.0675,-0.285,-0.2175,0.1765,0.075,-0.2515,-0.03,0.0835,0.1385,0.1155,0.0765,0.057,-0.0125,-0.0875,0.026
-0.0615,-0.2885,-0.227,0.175,0.083,-0.258,-0.034,0.0855,0.143,0.117,0.0755,0.056,-0.011,-0.094,0.026
-0.0885,-0.3135,-0.225,0.201,0.0685,-0.2695,-0.035,0.0855,0.147,0.1165,0.072,0.049,-0.015,-0.0965,0.026
-0.0855,-0.3205,-0.2355,0.203,0.0755,-0.278,-0.0345,0.092,0.1525,0.1175,0.07,0.045,-0.013,-0.097,0.0285
-0.0745,-0.317,-0.2425,0.196,0.0845,-0.2805,-0.031,0.096,0.1575,0.118,0.0695,0.0445,-0.0115,-0.1095,0.0285
-0.071,-0.3185,-0.2475,0.195,0.0885,-0.2835,-0.029,0.105,0.1685,0.123,0.0705,0.045,-0.011,-0.122,0.0285
-0.061,-0.314,-0.2535,0.1875,0.0965,-0.284,-0.0305,0.1115,0.176,0.1265,0.0695,0.045,-0.01,-0.109,0.0295
-0.0645,-0.3145,-0.2495,0.1895,0.093,-0.2825,-0.025,0.116,0.177,0.127,0.0665,0.0395,-0.014,-0.113,0.032
-0.0615,-0.316,-0.2545,0.189,0.0965,-0.2855,-0.0275,0.1205,0.182,0.127,0.0635,0.0345,-0.013,-0.119,0.034
-0.0595,-0.319,-0.2595,0.189,0.1,-0.2895,-0.027,0.127,0.188,0.1285,0.06,0.0315,-0.0125,-0.1205,0.033
-0.055,-0.316,-0.261,0.1855,0.1035,-0.289,-0.025,0.135,0.1935,0.13,0.0555,0.03,-0.0135,-0.122,0.034
-0.0575,-0.321,-0.2635,0.1895,0.103,-0.2925,-0.026,0.1385,0.1965,0.129,0.0525,0.0265,-0.0135,-0.124,0.037
-0.0555,-0.3245,-0.269,0.19,0.107,-0.297,-0.0245,0.1445,0.2025,0.1325,0.051,0.0235,-0.013,-0.1375,0.0375
-0.0535,-0.326,-0.2725,0.1895,0.11,-0.2995,-0.025,0.1515,0.2085,0.1355,0.0515,0.023,-0.01,-0.1465,0.038
-0.064,-0.332,-0.268,0.198,0.102,-0.3,-0.0215,0.159,0.2165,0.138,0.0545,0.0245,-0.0045,-0.141,0.0385
-0.0565,-0.3325,-0.276,0.1945,0.11,-0.3045,-0.021,0.163,0.2205,0.1375,0.0535,0.0255,-0.0035,-0.1325,0.039
-0.0495,-0.342,-0.293,0.196,0.122,-0.318,-0.027,0.1605,0.217,0.1315,0.046,0.018,-0.009,-0.1375,0.037
-0.038,-0.3495,-0.3115,0.194,0.137,-0.331,-0.026,0.164,0.221,0.1305,0.04,0.0165,-0.0075,-0.144,0.038
-0.042,-0.347,-0.305,0.1945,0.1315,-0.326,-0.016,0.179,0.233,0.14,0.046,0.0225,-0.006,-0.154,0.0405
-0.0215,-0.3395,-0.318,0.1805,0.1485,-0.329,-0.0185,0.185,0.236,0.1385,0.043,0.02,-0.004,-0.166,0.041
0.025,-0.3265,-0.3515,0.1505,0.1885,-0.339,-0.021,0.1865,0.2365,0.1365,0.038,0.0165,-0.0025,-0.169,0.044
0.0165,-0.3285,-0.345,0.156,0.181,-0.337,-0.0105,0.197,0.249,0.144,0.0405,0.019,-0.0045,-0.173,0.0415
-0.0165,-0.3505,-0.334,0.1835,0.159,-0.342,-0.008,0.2035,0.255,0.1465,0.037,0.0185,-0.0035,-0.1755,0.0425
-0.038,-0.3595,-0.3215,0.1985,0.142,-0.3405,-0.0045,0.214,0.2655,0.155,0.0425,0.0215,-0.0025,-0.1735,0.0465
-0.037,-0.3695,-0.3325,0.2035,0.148,-0.351,-0.007,0.2145,0.265,0.1465,0.0315,0.018,-0.0025,-0.183,0.047
-0.0125,-0.3735,-0.361,0.193,0.1745,-0.3675,-0.011,0.2125,0.263,0.14,0.0215,0.0115,-0.001,-0.187,0.0465
0.0145,-0.366,-0.38,0.1755,0.1975,-0.373,-0.013,0.216,0.268,0.1435,0.022,0.0065,0.001,-0.1855,0.0455
0.0095,-0.3665,-0.376,0.1785,0.193,-0.3715,-0.0155,0.2205,0.2705,0.143,0.0185,0.0025,0.0005,-0.194,0.045
0.0035,-0.3625,-0.366,0.1795,0.185,-0.3645,-0.0075,0.2295,0.2785,0.148,0.0235,0.006,-0.0015,-0.192,0.044
0.0,-0.3615,-0.3615,0.181,0.181,-0.362,-0.0005,0.2395,0.2885,0.155,0.0275,0.008,-0.0005,-0.19,0.045
-0.0035,-0.3625,-0.3585,0.183,0.178,-0.361,0.0025,0.2475,0.2955,0.161,0.0295,0.009,0.0,-0.1895,0.0455
-0.004,-0.361,-0.357,0.1825,0.177,-0.3595,0.0035,0.252,0.2985,0.1615,0.0285,0.009,-0.0005,-0.193,0.045
-0.0025,-0.361,-0.3585,0.182,0.178,-0.36,0.007,0.2605,0.3055,0.164,0.0285,0.008,0.001,-0.1945,0.045
0.001,-0.365,-0.366,0.182,0.1835,-0.366,0.0065,0.2625,0.308,0.163,0.0255,0.0035,0.0005,-0.1945,0.0455
0.005,-0.3635,-0.3685,0.179,0.187,-0.3665,0.0095,0.268,0.313,0.1645,0.0245,0.003,0.0005,-0.1965,0.045
0.008,-0.361,-0.369,0.1765,0.1885,-0.365,0.014,0.278,0.321,0.169,0.026,0.0045,0.0015,-0.196,0.044
0.0075,-0.3655,-0.373,0.179,0.1905,-0.3695,0.0155,0.284,0.326,0.17,0.0255,0.003,0.001,-0.2005,0.044
0.027,-0.364,-0.391,0.1685,0.2095,-0.3775,0.0175,0.291,0.332,0.1725,0.0265,0.0025,0.002,-0.201,0.0435
0.0295,-0.3615,-0.391,0.166,0.2105,-0.3765,0.021,0.2945,0.338,0.1755,0.027,0.002,0.0035,-0.2035,0.045
0.0405,-0.3555,-0.3965,0.1575,0.2185,-0.3765,0.0245,0.3,0.3445,0.178,0.0275,0.0035,0.004,-0.205,0.0465
0.0395,-0.36,-0.3995,0.16,0.22,-0.38,0.0275,0.3075,0.3505,0.181,0.028,0.0025,0.004,-0.204,0.046
0.027,-0.3805,-0.4075,0.177,0.2175,-0.3945,0.023,0.3065,0.347,0.1765,0.022,-0.008,0.0015,-0.2045,0.044
0.02,-0.39,-0.41,0.185,0.2155,-0.4005,0.022,0.308,0.3485,0.177,0.021,-0.0095,0.002,-0.206,0.046
0.008,-0.388,-0.396,0.19,0.2025,-0.392,0.0295,0.317,0.3595,0.1825,0.023,-0.001,0.0055,-0.2075,0.048
0.0255,-0.3875,-0.413,0.181,0.2195,-0.4005,0.026,0.317,0.359,0.1795,0.019,-0.007,0.0045,-0.21,0.0465
0.029,-0.387,-0.4155,0.179,0.2225,-0.4015,0.0295,0.322,0.363,0.1825,0.021,-0.0075,0.004,-0.213,0.046
0.0335,-0.384,-0.418,0.1755,0.226,-0.401,0.0315,0.3255,0.3675,0.1845,0.019,-0.006,0.0055,-0.21,0.044
0.038,-0.386,-0.4245,0.174,0.2315,-0.4055,0.026,0.323,0.364,0.18,0.014,-0.012,0.006,-0.212,0.0435
0.0395,-0.382,-0.4215,0.1715,0.231,-0.402,0.026,0.3275,0.368,0.182,0.015,-0.013,0.0055,-0.2065,0.041
0.034,-0.38,-0.414,0.173,0.224,-0.3975,0.032,0.333,0.373,0.185,0.018,-0.0105,0.0035,-0.1985,0.0385
0.01,-0.3795,-0.389,0.185,0.1995,-0.3845,0.042,0.344,0.384,0.193,0.025,-0.004,0.0035,-0.2075,0.0385
0.0045,-0.379,-0.384,0.1875,0.1945,-0.382,0.045,0.3485,0.3915,0.1975,0.027,-0.005,0.003,-0.2195,0.036
0.012,-0.38,-0.392,0.184,0.2025,-0.3865,0.044,0.348,0.3895,0.1945,0.0245,-0.0085,0.0035,-0.2185,0.035
0.008,-0.3755,-0.384,0.184,0.196,-0.38,0.0475,0.355,0.394,0.1975,0.0275,-0.004,0.004,-0.211,0.035
0.0205,-0.3735,-0.394,0.1765,0.2075,-0.384,0.047,0.354,0.3935,0.1945,0.0235,-0.008,0.005,-0.203,0.0335
0.058,-0.369,-0.427,0.1555,0.243,-0.398,0.038,0.347,0.3845,0.1865,0.0125,-0.0185,0.006,-0.2035,0.0325
0.0515,-0.367,-0.4185,0.1575,0.235,-0.3925,0.045,0.3525,0.392,0.1915,0.0185,-0.0145,0.005,-0.208,0.0325
0.0455,-0.37,-0.4155,0.162,0.231,-0.393,0.0525,0.3585,0.396,0.1955,0.022,-0.0115,0.0045,-0.2,0.0305
0.071,-0.3715,-0.443,0.15,0.2575,-0.4075,0.0465,0.3535,0.389,0.1865,0.0145,-0.0195,0.003,-0.2,0.029
0.07,-0.3545,-0.4245,0.1425,0.2475,-0.39,0.0605,0.3645,0.4015,0.1975,0.0265,-0.009,0.0035,-0.2005,0.03
0.0585,-0.3445,-0.4035,0.143,0.2315,-0.374,0.0715,0.378,0.413,0.209,0.0375,0.002,0.005,-0.2035,0.029
0.0455,-0.3695,-0.415,0.1625,0.2305,-0.3925,0.0625,0.371,0.405,0.1985,0.027,-0.007,0.0055,-0.212,0.0275
0.027,-0.3805,-0.4075,0.177,0.2175,-0.3945,0.065,0.3745,0.406,0.2005,0.0265,-0.0055,0.006,-0.209,0.0265
0.029,-0.376,-0.405,0.1735,0.2175,-0.391,0.0685,0.3775,0.4095,0.204,0.029,-0.0045,0.0045,-0.204,0.0265
0.041,-0.3885,-0.4295,0.174,0.2355,-0.409,0.058,0.3635,0.3985,0.191,0.018,-0.018,0.003,-0.2,0.025
0.0395,-0.3875,-0.4265,0.174,0.233,-0.407,0.061,0.368,0.4015,0.1945,0.022,-0.0155,0.003,-0.201,0.022
0.033,-0.3765,-0.4095,0.1715,0.2215,-0.393,0.072,0.3785,0.4105,0.203,0.0305,-0.0075,0.0045,-0.204,0.02
0.044,-0.365,-0.409,0.1605,0.2265,-0.387,0.073,0.3785,0.4095,0.201,0.0275,-0.0085,0.004,-0.198,0.0175
0.0455,-0.361,-0.407,0.1575,0.2265,-0.3845,0.071,0.377,0.408,0.2,0.025,-0.0105,0.003,-0.1925,0.017
0.036,-0.3615,-0.397,0.1625,0.217,-0.3795,0.0745,0.378,0.406,0.2015,0.026,-0.0095,0.002,-0.1895,0.014
0.0305,-0.361,-0.3915,0.1655,0.211,-0.3765,0.077,0.379,0.406,0.201,0.027,-0.009,0.0025,-0.1895,0.0125
0.0045,-0.3725,-0.377,0.184,0.191,-0.375,0.0765,0.375,0.404,0.1985,0.026,-0.011,0.002,-0.1915,0.0125
-0.0005,-0.3645,-0.364,0.1825,0.182,-0.3645,0.085,0.3785,0.408,0.2045,0.032,-0.0045,0.002,-0.191,0.0105
0.015,-0.361,-0.376,0.173,0.196,-0.369,0.0835,0.3735,0.403,0.1995,0.0295,-0.007,0.001,-0.182,0.0085
0.021,-0.3565,-0.3775,0.168,0.2,-0.3675,0.082,0.372,0.3985,0.1975,0.0285,-0.01,0.001,-0.173,0.006
0.0245,-0.34,-0.3645,0.158,0.1945,-0.3525,0.0905,0.3805,0.407,0.2055,0.0365,-0.002,0.001,-0.1755,0.005
0.0325,-0.334,-0.3665,0.1505,0.2,-0.3505,0.094,0.381,0.4075,0.207,0.0395,0.0,-0.0005,-0.177,0.0035
0.0355,-0.3415,-0.377,0.153,0.207,-0.3595,0.0925,0.3765,0.404,0.2045,0.038,-0.001,0.0,-0.176,0.002
0.0245,-0.3525,-0.377,0.164,0.201,-0.365,0.094,0.3745,0.4015,0.2025,0.038,-0.0015,0.0,-0.176,0.0015
0.025,-0.3515,-0.3765,0.1635,0.201,-0.364,0.0975,0.3745,0.3995,0.2035,0.039,0.0,-0.0005,-0.174,-0.0005
0.0225,-0.3475,-0.37,0.1625,0.1965,-0.359,0.1005,0.3755,0.4,0.2055,0.04,0.0035,-0.001,-0.172,-0.003
0.019,-0.345,-0.364,0.163,0.192,-0.355,0.102,0.3755,0.3995,0.2055,0.0425,0.0055,-0.0005,-0.171,-0.0035
0.0215,-0.343,-0.365,0.1605,0.1935,-0.354,0.102,0.374,0.399,0.205,0.045,0.006,-0.001,-0.1705,-0.0065
0.0165,-0.341,-0.3575,0.162,0.187,-0.3495,0.1065,0.3745,0.399,0.2045,0.046,0.008,-0.0015,-0.1655,-0.007
0.019,-0.3395,-0.359,0.1605,0.189,-0.3495,0.1085,0.37,0.393,0.2015,0.0425,0.005,-0.003,-0.162,-0.0075
0.026,-0.332,-0.358,0.153,0.192,-0.3455,0.113,0.372,0.395,0.2055,0.0455,0.0085,-0.0045,-0.165,-0.0115
0.0165,-0.332,-0.3485,0.1575,0.183,-0.3405,0.115,0.3735,0.3935,0.2055,0.047,0.0125,-0.004,-0.161,-0.0135
-0.021,-0.337,-0.316,0.179,0.1475,-0.3265,0.1185,0.3735,0.392,0.206,0.0495,0.0145,-0.005,-0.153,-0.0155
-0.0125,-0.334,-0.3215,0.1735,0.1545,-0.328,0.1175,0.369,0.3875,0.203,0.048,0.0105,-0.006,-0.15,-0.017
0.008,-0.3305,-0.3385,0.161,0.1735,-0.335,0.1125,0.3605,0.378,0.197,0.042,0.0045,-0.007,-0.1505,-0.017
-0.0105,-0.325,-0.314,0.1675,0.152,-0.32,0.1205,0.365,0.382,0.2025,0.049,0.0115,-0.009,-0.1485,-0.0185
-0.0165,-0.3315,-0.315,0.174,0.1495,-0.3235,0.117,0.355,0.373,0.196,0.045,0.0065,-0.01,-0.143,-0.019
-0.0275,-0.3355,-0.308,0.1815,0.1405,-0.322,0.1125,0.349,0.3675,0.192,0.044,0.0035,-0.0105,-0.137,-0.022
-0.0335,-0.3305,-0.2975,0.182,0.132,-0.314,0.114,0.3515,0.3695,0.195,0.0495,0.0075,-0.0105,-0.1325,-0.0245
-0.028,-0.328,-0.3,0.178,0.136,-0.314,0.117,0.3445,0.3615,0.1895,0.045,0.0055,-0.0115,-0.132,-0.0255
-0.03,-0.322,-0.292,0.176,0.131,-0.307,0.123,0.3445,0.36,0.192,0.048,0.0085,-0.0125,-0.1275,-0.0265
-0.0335,-0.3215,-0.288,0.1775,0.1275,-0.305,0.1225,0.3455,0.3595,0.1935,0.052,0.013,-0.0115,-0.1215,-0.026
-0.0305,-0.3185,-0.288,0.1745,0.129,-0.3035,0.1255,0.3465,0.357,0.193,0.055,0.017,-0.0115,-0.126,-0.027
-0.0335,-0.3175,-0.284,0.1755,0.1255,-0.301,0.1275,0.342,0.353,0.191,0.056,0.0165,-0.0125,-0.1185,-0.0275
-0.034,-0.3145,-0.28,0.1745,0.123,-0.2975,0.1275,0.3375,0.3495,0.1895,0.056,0.017,-0.013,-0.1055,-0.029
-0.033,-0.313,-0.28,0.173,0.1235,-0.2965,0.132,0.3405,0.349,0.1915,0.0585,0.0215,-0.012,-0.115,-0.0305
-0.034,-0.3195,-0.286,0.177,0.126,-0.303,0.1295,0.334,0.343,0.1875,0.0555,0.0215,-0.0115,-0.121,-0.0315
-0.032,-0.3125,-0.2805,0.172,0.1245,-0.297,0.134,0.334,0.342,0.1895,0.0595,0.026,-0.0125,-0.1115,-0.0345
-0.033,-0.314,-0.281,0.1735,0.124,-0.2975,0.1345,0.3295,0.337,0.187,0.06,0.026,-0.013,-0.1085,-0.035
-0.048,-0.33,-0.282,0.189,0.1175,-0.306,0.1305,0.321,0.33,0.18,0.0565,0.0235,-0.013,-0.1135,-0.0335
-0.0515,-0.3215,-0.2705,0.1865,0.1095,-0.2965,0.1385,0.3245,0.3325,0.1845,0.062,0.03,-0.013,-0.103,-0.036
-0.041,-0.3095,-0.2685,0.175,0.114,-0.2895,0.14,0.321,0.3305,0.1855,0.065,0.032,-0.013,-0.097,-0.0385
-0.051,-0.306,-0.255,0.1785,0.102,-0.281,0.142,0.32,0.328,0.186,0.0675,0.033,-0.0135,-0.0975,-0.0385
-0.059,-0.3,-0.241,0.1795,0.091,-0.2705,0.1455,0.3185,0.327,0.1885,0.0715,0.0365,-0.0155,-0.0925,-0.0405
-0.054,-0.2975,-0.2435,0.1755,0.095,-0.271,0.147,0.3135,0.3225,0.186,0.0725,0.035,-0.0165,-0.0865,-0.0415
-0.0595,-0.289,-0.23,0.1745,0.0855,-0.26,0.1525,0.317,0.324,0.188,0.0765,0.035,-0.02,-0.079,-0.0425
-0.0895,-0.2965,-0.207,0.193,0.059,-0.252,0.1525,0.314,0.321,0.1875,0.077,0.032,-0.024,-0.0845,-0.0435
-0.098,-0.3085,-0.2105,0.2035,0.0565,-0.26,0.1435,0.301,0.308,0.1775,0.069,0.0235,-0.0245,-0.082,-0.045
-0.07,-0.2925,-0.222,0.1815,0.0765,-0.2575,0.1425,0.295,0.3045,0.176,0.069,0.0255,-0.025,-0.07,-0.0475
-0.0585,-0.2775,-0.219,0.168,0.0805,-0.2485,0.1505,0.295,0.3045,0.1795,0.074,0.0315,-0.024,-0.0645,-0.0485
-0.0605,-0.27,-0.2095,0.165,0.075,-0.24,0.1535,0.2935,0.305,0.181,0.0785,0.036,-0.0235,-0.0665,-0.0465
-0.0415,-0.2565,-0.2155,0.149,0.087,-0.2365,0.155,0.292,0.305,0.181,0.0805,0.0415,-0.023,-0.067,-0.044
-0.069,-0.288,-0.219,0.1785,0.0755,-0.254,0.151,0.2815,0.2925,0.1725,0.0705,0.0355,-0.023,-0.077,-0.0465
-0.0975,-0.3105,-0.213,0.204,0.058,-0.262,0.1465,0.274,0.2845,0.168,0.0665,0.0315,-0.024,-0.08,-0.0475
-0.084,-0.297,-0.213,0.1905,0.065,-0.2555,0.148,0.271,0.2825,0.1675,0.07,0.0355,-0.0225,-0.066,-0.048
-0.0685,-0.2825,-0.214,0.1755,0.0725,-0.2485,0.1515,0.2705,0.2805,0.1695,0.0745,0.04,-0.022,-0.0635,-0.048
-0.0555,-0.266,-0.2105,0.161,0.078,-0.2385,0.1555,0.272,0.284,0.1755,0.0855,0.0465,-0.022,-0.0655,-0.049
-0.081,-0.2885,-0.207,0.1845,0.0635,-0.248,0.1505,0.262,0.276,0.1695,0.082,0.0425,-0.0225,-0.0665,-0.0535
-0.049,-0.27,-0.221,0.1595,0.0865,-0.2455,0.1525,0.2605,0.273,0.168,0.082,0.045,-0.0235,-0.069,-0.055
-0.033,-0.253,-0.22,0.143,0.0935,-0.2365,0.159,0.2615,0.2775,0.1755,0.0925,0.0515,-0.0255,-0.072,-0.055
-0.0775,-0.2875,-0.21,0.1825,0.0665,-0.249,0.151,0.25,0.2625,0.166,0.083,0.0425,-0.0275,-0.065,-0.0565
-0.0915,-0.2925,-0.201,0.192,0.055,-0.247,0.1485,0.243,0.253,0.1605,0.0795,0.0395,-0.027,-0.0575,-0.0585
-0.0985,-0.281,-0.183,0.1895,0.0425,-0.232,0.1505,0.2405,0.255,0.163,0.086,0.045,-0.028,-0.0585,-0.0605
-0.098,-0.2745,-0.1765,0.186,0.0395,-0.2255,0.1545,0.241,0.2545,0.165,0.09,0.051,-0.0275,-0.0535,-0.0615
-0.098,-0.269,-0.171,0.1835,0.037,-0.2205,0.1565,0.238,0.252,0.1665,0.0935,0.0545,-0.029,-0.049,-0.0615
-0.091,-0.269,-0.178,0.1795,0.044,-0.2235,0.149,0.2275,0.243,0.1585,0.088,0.049,-0.03,-0.0485,-0.0625
-0.0975,-0.2655,-0.168,0.1815,0.0355,-0.217,0.15,0.2245,0.2415,0.16,0.089,0.05,-0.0305,-0.042,-0.061
-0.098,-0.2575,-0.1595,0.178,0.031,-0.2085,0.1525,0.22,0.2385,0.1595,0.092,0.0525,-0.0305,-0.035,-0.061
-0.089,-0.2575,-0.168,0.173,0.04,-0.213,0.148,0.2135,0.2335,0.157,0.091,0.0525,-0.0285,-0.0345,-0.0625
-0.0855,-0.2535,-0.1675,0.1695,0.041,-0.211,0.145,0.209,0.2325,0.156,0.0915,0.055,-0.0275,-0.0325,-0.062
-0.099,-0.257,-0.158,0.178,0.0295,-0.208,0.144,0.2035,0.2285,0.154,0.0925,0.0565,-0.027,-0.032,-0.062
-0.1125,-0.257,-0.1445,0.185,0.0165,-0.201,0.1545,0.2055,0.2305,0.16,0.099,0.061,-0.028,-0.028,-0.0635
-0.1055,-0.2565,-0.151,0.181,0.023,-0.204,0.1535,0.205,0.229,0.1595,0.1,0.0625,-0.0285,-0.032,-0.0645
-0.1085,-0.261,-0.152,0.1845,0.022,-0.207,0.142,0.1975,0.2225,0.157,0.0995,0.0615,-0.0275,-0.0305,-0.066
-0.096,-0.2505,-0.1545,0.1735,0.0295,-0.203,0.1425,0.192,0.22,0.158,0.1015,0.0635,-0.026,-0.023,-0.066
-0.092,-0.25,-0.158,0.171,0.033,-0.2045,0.144,0.191,0.2185,0.1585,0.105,0.068,-0.0255,-0.029,-0.0655
-0.0965,-0.2515,-0.1555,0.174,0.0295,-0.204,0.144,0.1915,0.2175,0.1575,0.1085,0.07,-0.026,-0.0245,-0.067
-0.093,-0.2565,-0.163,0.1745,0.0355,-0.21,0.1395,0.186,0.211,0.1525,0.106,0.066,-0.027,-0.022,-0.068
-0.092,-0.2595,-0.1675,0.176,0.038,-0.2135,0.136,0.1765,0.205,0.1495,0.103,0.063,-0.028,-0.0235,-0.069
-0.105,-0.259,-0.154,0.182,0.0245,-0.207,0.141,0.179,0.208,0.154,0.1115,0.067,-0.03,-0.025,-0.068
-0.1125,-0.26,-0.148,0.1865,0.018,-0.2045,0.1435,0.1835,0.2095,0.1565,0.116,0.072,-0.0295,-0.0245,-0.0685
-0.109,-0.2525,-0.1435,0.1805,0.0175,-0.198,0.1465,0.1815,0.2095,0.158,0.1175,0.074,-0.0295,-0.0205,-0.0705
-0.1095,-0.2505,-0.141,0.18,0.016,-0.196,0.1415,0.174,0.204,0.153,0.114,0.0715,-0.0305,-0.017,-0.0695
-0.103,-0.2505,-0.1475,0.1765,0.0225,-0.199,0.1385,0.17,0.1995,0.1475,0.109,0.068,-0.031,-0.012,-0.072
-0.113,-0.246,-0.133,0.18,0.01,-0.19,0.1445,0.173,0.2025,0.152,0.1145,0.072,-0.032,-0.0135,-0.0715
-0.1185,-0.249,-0.1305,0.184,0.006,-0.19,0.14,0.1655,0.1975,0.148,0.1105,0.071,-0.0325,-0.014,-0.069
-0.12,-0.2505,-0.131,0.185,0.006,-0.191,0.1345,0.16,0.193,0.143,0.1065,0.068,-0.0335,-0.006,-0.068
-0.1255,-0.247,-0.1215,0.1865,-0.002,-0.1845,0.137,0.1615,0.1915,0.144,0.1085,0.0695,-0.033,0.003,-0.067
-0.13,-0.248,-0.1185,0.189,-0.0055,-0.1835,0.1365,0.1575,0.1895,0.1435,0.109,0.0705,-0.0325,-0.001,-0.065
-0.135,-0.2425,-0.1075,0.189,-0.0135,-0.1755,0.1365,0.159,0.191,0.1475,0.112,0.0735,-0.032,-0.0065,-0.0665
-0.1285,-0.2395,-0.1115,0.184,-0.0085,-0.176,0.1325,0.1545,0.1875,0.146,0.109,0.0695,-0.033,-0.0105,-0.0665
-0.1115,-0.2415,-0.13,0.1765,0.0095,-0.186,0.128,0.1465,0.1815,0.1405,0.106,0.0645,-0.0345,-0.005,-0.066
-0.1165,-0.2415,-0.125,0.179,0.0045,-0.1835,0.135,0.149,0.1835,0.1455,0.109,0.069,-0.035,-0.005,-0.0665
-0.1255,-0.2435,-0.118,0.1845,-0.0035,-0.181,0.1335,0.1495,0.1835,0.1465,0.1095,0.0715,-0.035,0.0,-0.0655
-0.122,-0.2415,-0.1195,0.1815,-0.001,-0.1805,0.1295,0.145,0.1805,0.1455,0.111,0.0715,-0.033,0.0095,-0.0665
-0.1255,-0.245,-0.1195,0.185,-0.0025,-0.1825,0.131,0.1425,0.181,0.1465,0.1125,0.073,-0.033,0.0035,-0.068
-0.13,-0.249,-0.119,0.1895,-0.005,-0.1845,0.1295,0.1405,0.181,0.1485,0.114,0.0735,-0.0325,0.0015,-0.0705
-0.118,-0.247,-0.1295,0.1825,0.006,-0.1885,0.1275,0.1365,0.1775,0.147,0.1125,0.073,-0.032,-0.0095,-0.0725
-0.1045,-0.2485,-0.144,0.1765,0.02,-0.1965,0.1235,0.134,0.174,0.1425,0.108,0.0695,-0.0325,-0.01,-0.0745
-0.124,-0.256,-0.132,0.19,0.0045,-0.1945,0.1265,0.1315,0.174,0.144,0.1105,0.07,-0.0335,-0.007,-0.0715
-0.142,-0.265,-0.123,0.2035,-0.0095,-0.1945,0.128,0.1305,0.175,0.143,0.114,0.0715,-0.0345,-0.01,-0.0695
-0.13,-0.2535,-0.124,0.192,-0.003,-0.189,0.1255,0.129,0.173,0.1435,0.114,0.071,-0.033,-0.005,-0.0715
-0.132,-0.242,-0.11,0.187,-0.011,-0.176,0.1285,0.133,0.1755,0.147,0.119,0.076,-0.0335,-0.008,-0.0725
-0.1325,-0.246,-0.1135,0.189,-0.0095,-0.18,0.125,0.1315,0.172,0.1445,0.117,0.076,-0.033,-0.0075,-0.073
-0.1225,-0.239,-0.117,0.181,-0.0025,-0.1785,0.123,0.1275,0.1695,0.144,0.1145,0.075,-0.034,0.009,-0.0725
-0.153,-0.2445,-0.091,0.1985,-0.031,-0.168,0.129,0.133,0.1765,0.15,0.122,0.08,-0.0345,0.0125,-0.074
-0.1755,-0.2415,-0.066,0.2085,-0.0545,-0.154,0.132,0.135,0.1795,0.1545,0.1255,0.0855,-0.034,0.021,-0.0755
-0.1725,-0.2335,-0.061,0.203,-0.0555,-0.1475,0.13,0.1315,0.1755,0.1515,0.1225,0.085,-0.0355,0.027,-0.075
-0.1675,-0.233,-0.0655,0.2,-0.051,-0.1495,0.1245,0.1295,0.172,0.147,0.1185,0.0835,-0.0355,0.0195,-0.072
-0.1755,-0.2245,-0.049,0.2,-0.063,-0.1365,0.1305,0.1345,0.1785,0.1505,0.122,0.094,-0.036,0.017,-0.0705
-0.1685,-0.23,-0.061,0.199,-0.0535,-0.1455,0.1245,0.1275,0.171,0.141,0.1145,0.088,-0.0365,0.015,-0.07
-0.1465,-0.241,-0.0945,0.1935,-0.0255,-0.168,0.111,0.1135,0.1565,0.1275,0.1025,0.073,-0.0375,0.02,-0.0715
-0.1355,-0.2345,-0.099,0.185,-0.018,-0.167,0.1155,0.117,0.161,0.1325,0.1065,0.0755,-0.0365,0.015,-0.074
-0.1455,-0.228,-0.083,0.187,-0.031,-0.156,0.1225,0.123,0.168,0.1395,0.1135,0.08,-0.0375,0.016,-0.0735
-0.153,-0.2345,-0.0815,0.1935,-0.0355,-0.1585,0.1205,0.118,0.1635,0.137,0.1115,0.0765,-0.0365,0.018,-0.0745
-0.148,-0.2335,-0.0855,0.1905,-0.031,-0.1595,0.1185,0.1175,0.162,0.1385,0.1115,0.077,-0.0365,0.0215,-0.0745
-0.1655,-0.2435,-0.078,0.2045,-0.0435,-0.161,0.113,0.1145,0.1575,0.1355,0.11,0.076,-0.0355,0.0235,-0.075
-0.1615,-0.2515,-0.0895,0.2065,-0.036,-0.1705,0.1085,0.1085,0.152,0.131,0.106,0.0705,-0.0345,0.019,-0.076
-0.152,-0.243,-0.091,0.1975,-0.03,-0.1675,0.1125,0.109,0.152,0.13,0.1055,0.072,-0.0355,0.0205,-0.0765
-0.166,-0.2365,-0.0705,0.2015,-0.0475,-0.154,0.1195,0.116,0.1585,0.137,0.114,0.082,-0.036,0.016,-0.074
-0.1535,-0.2355,-0.0825,0.1945,-0.035,-0.159,0.1175,0.1155,0.16,0.1405,0.114,0.0805,-0.037,0.0165,-0.075
-0.131,-0.2295,-0.0985,0.1805,-0.016,-0.164,0.112,0.107,0.155,0.1355,0.1085,0.076,-0.0345,0.02,-0.076
-0.153,-0.229,-0.076,0.191,-0.038,-0.153,0.1135,0.11,0.157,0.138,0.114,0.0805,-0.034,0.0155,-0.0755
-0.1735,-0.24,-0.0665,0.207,-0.0535,-0.1535,0.11,0.1105,0.1555,0.139,0.1125,0.0795,-0.036,0.0215,-0.078
-0.1665,-0.234,-0.0675,0.2,-0.0495,-0.1505,0.112,0.1115,0.157,0.1405,0.1145,0.082,-0.035,0.024,-0.0785
-0.155,-0.228,-0.0735,0.1915,-0.0405,-0.151,0.1105,0.1115,0.1545,0.137,0.1125,0.0795,-0.037,0.017,-0.079
-0.1585,-0.2265,-0.0675,0.1925,-0.0455,-0.147,0.1105,0.109,0.154,0.1355,0.1115,0.0795,-0.038,0.028,-0.0795
-0.174,-0.2315,-0.0575,0.2025,-0.058,-0.1445,0.1095,0.106,0.153,0.135,0.109,0.0745,-0.041,0.037,-0.078
-0.176,-0.2325,-0.056,0.204,-0.06,-0.1445,0.105,0.104,0.1515,0.132,0.105,0.0665,-0.0465,0.0365,-0.079
-0.1615,-0.2215,-0.06,0.1915,-0.0505,-0.141,0.107,0.1035,0.1525,0.132,0.107,0.0685,-0.0445,0.0305,-0.0805
-0.1655,-0.2205,-0.055,0.193,-0.055,-0.138,0.108,0.105,0.1525,0.133,0.108,0.07,-0.044,0.0295,-0.079
-0.1745,-0.226,-0.051,0.2005,-0.0615,-0.139,0.108,0.1055,0.153,0.1345,0.109,0.0725,-0.0435,0.0325,-0.077
-0.1745,-0.2345,-0.06,0.2045,-0.057,-0.1475,0.1045,0.102,0.1495,0.1315,0.1065,0.0715,-0.043,0.0315,-0.0775
-0.1725,-0.2325,-0.06,0.2025,-0.056,-0.1465,0.101,0.099,0.145,0.1295,0.1065,0.071,-0.042,0.0345,-0.0775
-0.1715,-0.231,-0.06,0.2015,-0.0555,-0.146,0.1025,0.099,0.1455,0.13,0.1095,0.0735,-0.041,0.0365,-0.0775
-0.175,-0.2265,-0.0515,0.2005,-0.0615,-0.1395,0.105,0.104,0.1515,0.134,0.114,0.078,-0.0405,0.04,-0.078
-0.1485,-0.2155,-0.067,0.182,-0.0405,-0.1415,0.103,0.1045,0.152,0.1345,0.114,0.081,-0.0385,0.0375,-0.076
-0.143,-0.2235,-0.0805,0.1835,-0.031,-0.1525,0.1005,0.101,0.1475,0.1325,0.112,0.078,-0.038,0.0395,-0.076
-0.158,-0.2305,-0.073,0.1945,-0.042,-0.152,0.095,0.0965,0.1425,0.13,0.1105,0.0755,-0.038,0.0395,-0.077
-0.161,-0.2305,-0.0695,0.1955,-0.0455,-0.15,0.094,0.0945,0.142,0.1295,0.113,0.0745,-0.0395,0.033,-0.0775
-0.169,-0.2325,-0.0635,0.2005,-0.0525,-0.148,0.097,0.0975,0.144,0.1345,0.1185,0.0775,-0.04,0.0335,-0.0785
-0.172,-0.2325,-0.0605,0.202,-0.0555,-0.147,0.097,0.0985,0.1425,0.133,0.1195,0.079,-0.041,0.0315,-0.08
-0.1745,-0.23,-0.056,0.2025,-0.059,-0.143,0.0965,0.0985,0.1415,0.1325,0.119,0.078,-0.041,0.039,-0.081
-0.1725,-0.231,-0.0585,0.2015,-0.0565,-0.145,0.0965,0.099,0.142,0.132,0.12,0.08,-0.041,0.04,-0.081
-0.178,-0.231,-0.0535,0.2045,-0.062,-0.1425,0.096,0.0995,0.14,0.1285,0.1195,0.079,-0.0435,0.045,-0.081
-0.182,-0.2285,-0.0465,0.2055,-0.0675,-0.138,0.0955,0.0985,0.1395,0.129,0.1205,0.0795,-0.0425,0.047,-0.081
-0.1815,-0.228,-0.047,0.205,-0.067,-0.138,0.096,0.097,0.1405,0.128,0.1205,0.081,-0.041,0.0395,-0.0795
-0.1845,-0.228,-0.0435,0.206,-0.07,-0.136,0.098,0.096,0.1385,0.126,0.118,0.0795,-0.0425,0.043,-0.0785
-0.185,-0.2265,-0.0415,0.2055,-0.0715,-0.134,0.1,0.098,0.141,0.1295,0.1195,0.083,-0.043,0.0405,-0.079
-0.171,-0.2115,-0.0405,0.1915,-0.065,-0.1265,0.1015,0.1005,0.144,0.132,0.1225,0.0865,-0.043,0.048,-0.0795
-0.1645,-0.21,-0.0455,0.1875,-0.0595,-0.128,0.0965,0.094,0.139,0.127,0.119,0.081,-0.044,0.046,-0.077
-0.175,-0.2215,-0.0465,0.1985,-0.064,-0.1345,0.095,0.0915,0.1395,0.1265,0.1185,0.081,-0.044,0.038,-0.077
-0.175,-0.2245,-0.0495,0.1995,-0.0625,-0.1375,0.098,0.0935,0.1415,0.129,0.119,0.083,-0.0435,0.042,-0.078
-0.1715,-0.2225,-0.051,0.197,-0.06,-0.137,0.0965,0.0915,0.1415,0.1285,0.1195,0.083,-0.044,0.0385,-0.078
-0.172,-0.2215,-0.05,0.1965,-0.0605,-0.136,0.096,0.0925,0.141,0.129,0.119,0.0845,-0.043,0.035,-0.0785
-0.1795,-0.2345,-0.0555,0.207,-0.062,-0.145,0.092,0.089,0.136,0.124,0.1145,0.0815,-0.0425,0.031,-0.0765
-0.1775,-0.234,-0.0565,0.206,-0.0605,-0.1455,0.0955,0.091,0.139,0.1265,0.1175,0.084,-0.0415,0.029,-0.0765
-0.1675,-0.2255,-0.058,0.1965,-0.0545,-0.142,0.0975,0.092,0.1415,0.1305,0.1205,0.088,-0.0405,0.032,-0.078
-0.1625,-0.2225,-0.06,0.1925,-0.051,-0.1415,0.0945,0.089,0.1415,0.1325,0.123,0.09,-0.039,0.0305,-0.08
-0.151,-0.2105,-0.0595,0.181,-0.0455,-0.1355,0.1,0.094,0.1465,0.139,0.128,0.0955,-0.04,0.029,-0.081
-0.1545,-0.214,-0.0595,0.184,-0.0475,-0.137,0.0985,0.0925,0.146,0.1385,0.1295,0.094,-0.042,0.026,-0.082
-0.169,-0.2235,-0.0545,0.1965,-0.057,-0.1395,0.096,0.0905,0.1445,0.1385,0.129,0.092,-0.04,0.032,-0.084
-0.154,-0.206,-0.052,0.18,-0.051,-0.1295,0.098,0.093,0.148,0.1425,0.133,0.0955,-0.038,0.046,-0.087
-0.1645,-0.215,-0.0505,0.1895,-0.0565,-0.133,0.094,0.092,0.1465,0.1395,0.129,0.091,-0.0395,0.048,-0.0885
-0.1895,-0.2365,-0.047,0.213,-0.071,-0.142,0.087,0.085,0.1385,0.13,0.1185,0.0825,-0.0415,0.048,-0.0855
-0.189,-0.2325,-0.043,0.211,-0.073,-0.138,0.0855,0.0805,0.1365,0.1255,0.114,0.0815,-0.0435,0.0445,-0.0845
-0.1795,-0.2195,-0.04,0.1995,-0.0695,-0.13,0.0875,0.0825,0.137,0.1275,0.1145,0.085,-0.043,0.046,-0.0835
-0.1695,-0.201,-0.0315,0.1855,-0.069,-0.1165,0.0925,0.088,0.1415,0.133,0.1205,0.0925,-0.0425,0.0505,-0.082
-0.191,-0.2115,-0.0205,0.201,-0.085,-0.1165,0.093,0.0875,0.1415,0.133,0.122,0.0915,-0.044,0.0445,-0.0825
-0.183,-0.214,-0.031,0.1985,-0.0755,-0.123,0.088,0.0795,0.135,0.1285,0.117,0.088,-0.0405,0.048,-0.0825
-0.182,-0.2175,-0.036,0.1995,-0.0725,-0.127,0.0815,0.076,0.13,0.1255,0.1145,0.085,-0.041,0.049,-0.0815
-0.185,-0.2205,-0.0355,0.203,-0.0745,-0.128,0.0815,0.076,0.13,0.1265,0.1165,0.085,-0.042,0.049,-0.0805
-0.1815,-0.221,-0.0395,0.201,-0.0705,-0.1305,0.0845,0.079,0.133,0.1285,0.119,0.0895,-0.0405,0.053,-0.0815
-0.1955,-0.2365,-0.0405,0.216,-0.077,-0.1385,0.076,0.07,0.1255,0.1225,0.114,0.085,-0.039,0.0465,-0.084
-0.1745,-0.2165,-0.042,0.1955,-0.066,-0.1295,0.079,0.0725,0.1295,0.126,0.121,0.091,-0.037,0.048,-0.084
-0.177,-0.22,-0.043,0.1985,-0.067,-0.1315,0.0795,0.0735,0.1275,0.1235,0.119,0.09,-0.037,0.051,-0.0845
-0.1955,-0.233,-0.0375,0.2145,-0.0785,-0.1355,0.08,0.069,0.1235,0.1205,0.1175,0.0905,-0.037,0.0475,-0.0835
-0.197,-0.22,-0.0235,0.2085,-0.0865,-0.122,0.0885,0.077,0.134,0.13,0.1255,0.101,-0.036,0.0525,-0.082
-0.1815,-0.2175,-0.036,0.1995,-0.0725,-0.127,0.0835,0.0695,0.1275,0.123,0.118,0.096,-0.036,0.06,-0.081
-0.18,-0.2155,-0.035,0.1975,-0.0725,-0.1255,0.087,0.07,0.13,0.124,0.122,0.098,-0.036,0.056,-0.08
-0.1925,-0.2175,-0.025,0.205,-0.0835,-0.1215,0.09,0.0735,0.1335,0.1295,0.127,0.102,-0.036,0.053,-0.0815
-0.185,-0.2145,-0.03,0.1995,-0.077,-0.1225,0.0895,0.0705,0.132,0.1285,0.126,0.1015,-0.0355,0.0525,-0.081
-0.1735,-0.2115,-0.038,0.1925,-0.0675,-0.125,0.0845,0.066,0.1275,0.1255,0.1215,0.098,-0.0335,0.054,-0.0825
-0.1585,-0.211,-0.0525,0.185,-0.0525,-0.132,0.0785,0.059,0.119,0.1175,0.1145,0.0925,-0.033,0.056,-0.0825
-0.1575,-0.205,-0.0475,0.1815,-0.055,-0.1265,0.078,0.0595,0.1185,0.1165,0.1145,0.093,-0.033,0.056,-0.0815
-0.169,-0.2045,-0.0355,0.187,-0.0665,-0.1205,0.0805,0.062,0.121,0.119,0.1165,0.0965,-0.0325,0.059,-0.082
-0.1785,-0.2045,-0.0265,0.1915,-0.0755,-0.116,0.0815,0.061,0.122,0.1215,0.1185,0.099,-0.032,0.053,-0.081
-0.191,-0.2045,-0.0135,0.198,-0.0885,-0.1095,0.0835,0.06,0.1235,0.1225,0.1195,0.1005,-0.0325,0.055,-0.081
-0.194,-0.204,-0.01,0.199,-0.092,-0.107,0.083,0.06,0.1235,0.124,0.122,0.1025,-0.0315,0.0675,-0.0805
-0.181,-0.199,-0.018,0.19,-0.081,-0.109,0.0775,0.0555,0.1195,0.123,0.12,0.1015,-0.0295,0.0655,-0.0845
-0.192,-0.1985,-0.0065,0.195,-0.0925,-0.1025,0.0815,0.0545,0.1205,0.1235,0.1225,0.1025,-0.0295,0.062,-0.0835
-0.1925,-0.201,-0.0085,0.197,-0.092,-0.105,0.078,0.0545,0.1205,0.1245,0.1225,0.102,-0.031,0.0625,-0.0825
-0.189,-0.203,-0.014,0.196,-0.087,-0.1085,0.0775,0.055,0.1215,0.1255,0.123,0.103,-0.032,0.0605,-0.084
-0.1835,-0.2015,-0.018,0.1925,-0.0825,-0.11,0.0745,0.05,0.1165,0.1205,0.12,0.0985,-0.032,0.0635,-0.082
-0.178,-0.199,-0.0215,0.1885,-0.078,-0.1105,0.073,0.0475,0.115,0.119,0.1195,0.099,-0.031,0.074,-0.0825
-0.1865,-0.1875,-0.001,0.187,-0.0925,-0.0945,0.0865,0.058,0.1255,0.13,0.132,0.1105,-0.0305,0.0745,-0.083
-0.1665,-0.1875,-0.021,0.177,-0.0725,-0.1045,0.08,0.0525,0.1215,0.126,0.1275,0.1045,-0.0295,0.065,-0.0845
-0.1465,-0.2025,-0.0555,0.1745,-0.045,-0.129,0.0635,0.0385,0.107,0.112,0.1135,0.09,-0.029,0.0635,-0.0845
-0.151,-0.2045,-0.0535,0.1775,-0.0485,-0.129,0.0615,0.0355,0.1035,0.1135,0.1125,0.0895,-0.0285,0.0665,-0.084
-0.1705,-0.2035,-0.0335,0.187,-0.068,-0.119,0.0685,0.041,0.11,0.124,0.121,0.0965,-0.0295,0.0655,-0.084
-0.1775,-0.201,-0.0235,0.189,-0.077,-0.1125,0.0715,0.043,0.111,0.128,0.127,0.1015,-0.0295,0.0715,-0.086
-0.1775,-0.199,-0.0215,0.188,-0.0775,-0.1105,0.071,0.039,0.1075,0.127,0.126,0.101,-0.03,0.073,-0.085
-0.1845,-0.2025,-0.018,0.1935,-0.083,-0.1105,0.0675,0.036,0.106,0.125,0.1245,0.1005,-0.028,0.0755,-0.084
-0.166,-0.1835,-0.0175,0.175,-0.074,-0.101,0.072,0.043,0.1115,0.1325,0.1335,0.109,-0.026,0.081,-0.0865
-0.149,-0.1585,-0.0095,0.1535,-0.0695,-0.084,0.0825,0.054,0.122,0.1445,0.147,0.1195,-0.027,0.082,-0.085
-0.169,-0.1685,0.0005,0.1685,-0.0845,-0.0845,0.077,0.049,0.118,0.1425,0.146,0.1195,-0.026,0.0805,-0.085
-0.185,-0.1835,0.0015,0.184,-0.093,-0.091,0.067,0.041,0.11,0.1345,0.1385,0.1135,-0.0265,0.0845,-0.0845
-0.1855,-0.1835,0.002,0.1845,-0.0935,-0.091,0.0665,0.039,0.1085,0.131,0.1355,0.111,-0.027,0.0875,-0.083
-0.1955,-0.1825,0.013,0.189,-0.104,-0.085,0.0685,0.0405,0.11,0.1335,0.138,0.115,-0.0275,0.084,-0.083
-0.188,-0.1765,0.0115,0.1825,-0.0995,-0.0825,0.069,0.0405,0.11,0.1335,0.1395,0.1165,-0.0265,0.0865,-0.085
-0.1925,-0.175,0.017,0.184,-0.1045,-0.079,0.0705,0.039,0.1105,0.137,0.1425,0.1185,-0.0255,0.0815,-0.083
-0.2015,-0.176,0.0255,0.1885,-0.113,-0.0755,0.0725,0.0405,0.1125,0.138,0.147,0.123,-0.0255,0.081,-0.082
-0.172,-0.174,-0.002,0.173,-0.085,-0.0885,0.067,0.035,0.1055,0.13,0.1395,0.1155,-0.027,0.08,-0.084
-0.1615,-0.175,-0.0135,0.168,-0.0735,-0.0945,0.066,0.0305,0.1005,0.127,0.1345,0.111,-0.0275,0.0785,-0.083
-0.1675,-0.172,-0.004,0.1695,-0.0815,-0.0885,0.0715,0.034,0.1045,0.129,0.1395,0.1165,-0.028,0.0795,-0.0835
-0.1715,-0.1735,-0.002,0.1725,-0.0845,-0.088,0.0705,0.0355,0.107,0.131,0.1415,0.12,-0.028,0.0745,-0.0845
-0.1705,-0.17,0.001,0.1705,-0.0855,-0.085,0.071,0.0355,0.1085,0.131,0.146,0.123,-0.028,0.0785,-0.0845
-0.16,-0.164,-0.004,0.162,-0.078,-0.084,0.074,0.037,0.1085,0.129,0.148,0.123,-0.029,0.0755,-0.0835
-0.1725,-0.168,0.0045,0.1705,-0.0885,-0.082,0.074,0.0395,0.109,0.1295,0.149,0.1255,-0.029,0.074,-0.083
-0.193,-0.1775,0.0155,0.185,-0.104,-0.081,0.074,0.0375,0.109,0.131,0.1495,0.128,-0.03,0.074,-0.0825
-0.19,-0.183,0.007,0.1865,-0.0985,-0.0885,0.071,0.033,0.106,0.13,0.1445,0.126,-0.0285,0.0785,-0.0845
-0.1895,-0.1825,0.007,0.186,-0.098,-0.088,0.0675,0.0315,0.1045,0.13,0.144,0.1245,-0.028,0.0845,-0.0865
-0.1825,-0.1785,0.004,0.1805,-0.093,-0.0875,0.061,0.026,0.102,0.13,0.1435,0.1225,-0.0265,0.079,-0.086
-0.174,-0.1725,0.0015,0.1735,-0.0875,-0.0855,0.061,0.0235,0.103,0.131,0.1445,0.122,-0.026,0.0755,-0.0875
