Time (s),i,ii,iii,avr,avl,avf,v1,v2,v3,v4,v5,v6,vx,vy,vz
0.0,-0.0265,-0.0055,0.021,0.0155,-0.0235,0.0075,-0.011,-0.1125,-0.2355,-0.128,-0.0835,-0.085,-0.063,0.069,-0.015
0.001,0.0055,0.0135,0.0075,-0.0095,-0.001,0.0105,-0.029,-0.1305,-0.253,-0.144,-0.098,-0.1025,-0.0625,0.0775,-0.0135
0.002,-0.0225,0.018,0.0405,0.002,-0.031,0.0285,-0.024,-0.1275,-0.2485,-0.1395,-0.0925,-0.095,-0.062,0.083,-0.0185
0.003,-0.012,0.0255,0.0375,-0.007,-0.0245,0.031,-0.03,-0.1305,-0.2515,-0.14,-0.0905,-0.0965,-0.064,0.0915,-0.0255
0.004,0.0085,0.019,0.0105,-0.014,-0.0005,0.0145,-0.0275,-0.1295,-0.254,-0.1405,-0.0925,-0.093,-0.063,0.0895,-0.0245
0.005,0.009,0.0075,-0.0015,-0.0085,0.0055,0.003,-0.023,-0.1265,-0.2495,-0.135,-0.0875,-0.0905,-0.062,0.0725,-0.0275
0.006,0.003,0.0235,0.021,-0.0135,-0.009,0.022,-0.0315,-0.1305,-0.2535,-0.138,-0.091,-0.096,-0.064,0.0725,-0.034
0.007,-0.0245,0.0135,0.038,0.0055,-0.031,0.025,-0.0255,-0.127,-0.2505,-0.1345,-0.088,-0.0935,-0.0635,0.0745,-0.0395
0.008,-0.008,0.0115,0.0195,-0.002,-0.0135,0.015,-0.013,-0.118,-0.2415,-0.123,-0.0755,-0.081,-0.0605,0.069,-0.0395
0.009,0.02,0.0225,0.0025,-0.0215,0.009,0.0125,-0.009,-0.117,-0.2395,-0.1225,-0.0745,-0.0725,-0.057,0.0615,-0.0335
0.01,0.0105,0.0145,0.004,-0.0125,0.0035,0.009,-0.0175,-0.124,-0.2435,-0.1285,-0.0795,-0.079,-0.058,0.0585,-0.0345
0.011,0.0185,0.028,0.0095,-0.0235,0.0045,0.018,-0.0255,-0.131,-0.2505,-0.1325,-0.0835,-0.084,-0.059,0.085,-0.038
0.012,0.0225,0.0375,0.015,-0.0305,0.004,0.0255,-0.0265,-0.135,-0.2535,-0.1375,-0.086,-0.0875,-0.058,0.102,-0.035
0.013,0.02,0.0275,0.0075,-0.0245,0.007,0.017,-0.0285,-0.1335,-0.2505,-0.138,-0.084,-0.0865,-0.0585,0.09,-0.032
0.014,0.0125,0.019,0.007,-0.016,0.003,0.0125,-0.0225,-0.1295,-0.244,-0.128,-0.076,-0.079,-0.0605,0.085,-0.038
0.015,0.002,0.0145,0.012,-0.0085,-0.0045,0.0125,-0.015,-0.123,-0.238,-0.1215,-0.069,-0.0695,-0.06,0.072,-0.0385
0.016,-0.0025,0.0215,0.024,-0.01,-0.013,0.022,-0.0145,-0.1255,-0.24,-0.125,-0.0715,-0.0725,-0.0615,0.0685,-0.032
0.017,-0.004,0.0335,0.0375,-0.015,-0.0205,0.035,-0.0205,-0.13,-0.2445,-0.129,-0.0755,-0.078,-0.0625,0.076,-0.03
0.018,-0.0025,0.019,0.0215,-0.0085,-0.0115,0.0195,-0.0155,-0.1205,-0.236,-0.1215,-0.067,-0.0685,-0.0605,0.067,-0.0275
0.019,-0.015,0.016,0.031,-0.0005,-0.0225,0.0225,-0.0105,-0.1205,-0.233,-0.119,-0.064,-0.0655,-0.0625,0.075,-0.0235
0.02,-0.015,0.034,0.0495,-0.01,-0.032,0.041,-0.0235,-0.135,-0.248,-0.1305,-0.076,-0.076,-0.0635,0.0905,-0.023
0.021,0.005,0.0435,0.0385,-0.0245,-0.0165,0.04,-0.0365,-0.147,-0.262,-0.1425,-0.088,-0.0875,-0.063,0.1055,-0.0245
0.022,0.019,0.024,0.005,-0.0215,0.0075,0.014,-0.0405,-0.1505,-0.2655,-0.147,-0.0915,-0.0895,-0.062,0.097,-0.0255
0.023,0.0285,0.021,-0.007,-0.025,0.018,0.007,-0.044,-0.1525,-0.267,-0.1495,-0.094,-0.0935,-0.0605,0.087,-0.0245
0.024,0.0365,0.0415,0.0055,-0.039,0.016,0.023,-0.0485,-0.158,-0.2725,-0.154,-0.0995,-0.0985,-0.059,0.0945,-0.0195
0.025,0.018,0.018,0.0,-0.0185,0.0095,0.009,-0.035,-0.146,-0.26,-0.1395,-0.085,-0.085,-0.0585,0.0785,-0.016
0.026,-0.0135,0.019,0.0325,-0.003,-0.023,0.0255,-0.0235,-0.1355,-0.2505,-0.127,-0.073,-0.073,-0.0575,0.0765,-0.008
0.027,-0.0315,0.039,0.0705,-0.004,-0.0505,0.0545,-0.019,-0.132,-0.2495,-0.1245,-0.0695,-0.069,-0.058,0.0865,0.0035
0.028,-0.02,0.041,0.061,-0.0105,-0.0405,0.0505,-0.003,-0.114,-0.2325,-0.108,-0.052,-0.052,-0.0575,0.0785,0.006
0.029,-0.0015,0.059,0.0605,-0.029,-0.031,0.0595,-0.006,-0.117,-0.2325,-0.108,-0.0525,-0.0525,-0.055,0.086,0.004
0.03,0.032,0.062,0.03,-0.047,0.001,0.0455,-0.025,-0.1345,-0.25,-0.1245,-0.068,-0.0695,-0.055,0.0965,-0.0005
0.031,0.057,0.049,-0.008,-0.0535,0.033,0.02,-0.0385,-0.148,-0.2625,-0.138,-0.0805,-0.0815,-0.0555,0.095,-0.011
0.032,0.043,0.0205,-0.023,-0.032,0.033,-0.0015,-0.0285,-0.144,-0.256,-0.1325,-0.078,-0.0785,-0.059,0.0715,-0.0165
0.033,0.022,-0.002,-0.024,-0.0105,0.0235,-0.013,-0.0205,-0.1355,-0.2485,-0.1245,-0.0695,-0.0695,-0.0595,0.0645,-0.02
0.034,-0.0005,0.019,0.019,-0.0095,-0.0095,0.0185,-0.0355,-0.1495,-0.2625,-0.1365,-0.083,-0.0845,-0.059,0.0865,-0.02
0.035,-0.012,0.0215,0.0335,-0.005,-0.0225,0.027,-0.0335,-0.148,-0.261,-0.1365,-0.081,-0.0795,-0.0565,0.079,-0.02
0.036,-0.0315,0.0,0.0315,0.0155,-0.031,0.015,-0.0255,-0.1415,-0.2525,-0.129,-0.0695,-0.063,-0.0525,0.0655,-0.0245
0.037,-0.0355,0.017,0.0525,0.009,-0.044,0.0345,-0.027,-0.142,-0.2525,-0.1285,-0.073,-0.0705,-0.0595,0.073,-0.0235
0.038,-0.009,0.05,0.059,-0.0205,-0.0335,0.0535,-0.0375,-0.151,-0.262,-0.14,-0.085,-0.086,-0.0645,0.0855,-0.02
0.039,0.005,0.03,0.025,-0.0175,-0.0095,0.027,-0.04,-0.1545,-0.265,-0.142,-0.0865,-0.087,-0.0635,0.0725,-0.0155
0.04,0.007,-0.0035,-0.01,-0.002,0.009,-0.007,-0.0345,-0.1475,-0.258,-0.1335,-0.0785,-0.079,-0.063,0.0635,-0.0155
0.041,0.0135,-0.012,-0.0255,-0.001,0.02,-0.019,-0.04,-0.152,-0.263,-0.139,-0.083,-0.0825,-0.0625,0.062,-0.0175
0.042,0.0095,-0.002,-0.0115,-0.004,0.0105,-0.0065,-0.043,-0.155,-0.2675,-0.1435,-0.0865,-0.0875,-0.065,0.061,-0.0165
0.043,-0.003,0.008,0.011,-0.003,-0.007,0.0095,-0.0405,-0.155,-0.2675,-0.141,-0.0855,-0.087,-0.0645,0.072,-0.019
0.044,-0.0075,0.007,0.0145,0.0,-0.0105,0.0105,-0.039,-0.153,-0.2645,-0.1375,-0.0805,-0.082,-0.0625,0.074,-0.0225
0.045,-0.014,0.0175,0.0315,-0.002,-0.0225,0.0235,-0.0375,-0.1495,-0.26,-0.1335,-0.076,-0.0765,-0.0615,0.0725,-0.025
0.046,-0.0255,0.012,0.038,0.0065,-0.0315,0.0245,-0.0285,-0.1425,-0.253,-0.1265,-0.0715,-0.069,-0.0605,0.071,-0.023
0.047,-0.0155,0.018,0.0335,-0.0015,-0.0245,0.0255,-0.029,-0.144,-0.2535,-0.1265,-0.071,-0.07,-0.0605,0.0865,-0.015
0.048,0.0155,0.0335,0.0175,-0.025,-0.0005,0.025,-0.039,-0.1525,-0.2645,-0.136,-0.081,-0.0795,-0.058,0.0895,-0.0055
0.049,0.0235,0.02,-0.0035,-0.022,0.0135,0.008,-0.0375,-0.151,-0.2645,-0.134,-0.0795,-0.078,-0.058,0.0875,0.0
0.05,0.018,0.038,0.02,-0.0285,-0.0005,0.0285,-0.0365,-0.1515,-0.262,-0.131,-0.0765,-0.0765,-0.058,0.101,-0.001
0.051,0.005,0.054,0.049,-0.03,-0.0215,0.051,-0.0305,-0.1455,-0.255,-0.1265,-0.071,-0.0705,-0.056,0.09,-0.0095
0.052,-0.0385,0.0405,0.0785,-0.001,-0.0585,0.059,-0.0195,-0.1335,-0.243,-0.1155,-0.0585,-0.0585,-0.057,0.0835,-0.012
0.053,-0.066,0.0175,0.0835,0.024,-0.0745,0.05,-0.0175,-0.1315,-0.2385,-0.1125,-0.0575,-0.057,-0.0575,0.074,-0.02
0.054,-0.049,0.0085,0.057,0.02,-0.053,0.0325,-0.021,-0.135,-0.2435,-0.118,-0.0625,-0.0625,-0.0575,0.069,-0.0285
0.055,-0.0225,0.033,0.0555,-0.0055,-0.0385,0.044,-0.0355,-0.151,-0.26,-0.1345,-0.0785,-0.0785,-0.058,0.0845,-0.0245
0.056,-0.022,0.011,0.033,0.0055,-0.027,0.0215,-0.033,-0.152,-0.2585,-0.1335,-0.078,-0.077,-0.058,0.072,-0.0155
0.057,-0.0365,0.004,0.0405,0.016,-0.0385,0.022,-0.035,-0.155,-0.262,-0.138,-0.081,-0.082,-0.0605,0.0805,-0.0125
0.058,-0.033,0.0165,0.0495,0.008,-0.041,0.0325,-0.046,-0.167,-0.272,-0.1505,-0.093,-0.092,-0.059,0.104,-0.0095
0.059,0.004,0.022,0.018,-0.013,-0.007,0.0195,-0.0495,-0.168,-0.2725,-0.151,-0.0955,-0.0935,-0.059,0.109,-0.006
0.06,0.025,0.033,0.008,-0.0295,0.009,0.02,-0.049,-0.166,-0.2715,-0.1505,-0.095,-0.0945,-0.062,0.106,-0.0075
0.061,0.011,0.0325,0.0215,-0.022,-0.0055,0.0265,-0.042,-0.1585,-0.2645,-0.1435,-0.0875,-0.0865,-0.062,0.1035,-0.0035
0.062,0.0005,0.04,0.0395,-0.0205,-0.019,0.039,-0.035,-0.1525,-0.258,-0.1355,-0.08,-0.0785,-0.0605,0.101,-0.001
0.063,-0.008,0.043,0.051,-0.0175,-0.029,0.0465,-0.0235,-0.1445,-0.2465,-0.1235,-0.0695,-0.0685,-0.0595,0.1015,-0.001
0.064,0.006,0.0465,0.04,-0.0265,-0.017,0.043,-0.0335,-0.1545,-0.257,-0.133,-0.08,-0.079,-0.0595,0.1085,-0.0015
0.065,0.0045,0.0405,0.036,-0.023,-0.0155,0.038,-0.0405,-0.1635,-0.266,-0.1435,-0.089,-0.0865,-0.058,0.1115,-0.0045
0.066,-0.0115,0.0915,0.1035,-0.04,-0.057,0.097,-0.05,-0.169,-0.274,-0.149,-0.0945,-0.093,-0.059,0.141,-0.006
0.067,0.003,0.0775,0.075,-0.0405,-0.0355,0.076,-0.046,-0.162,-0.268,-0.1425,-0.088,-0.0865,-0.057,0.114,-0.005
0.068,0.025,0.021,-0.0035,-0.023,0.0145,0.0085,-0.028,-0.147,-0.251,-0.125,-0.0705,-0.07,-0.0555,0.066,-0.008
0.069,0.0485,0.04,-0.0085,-0.0445,0.0285,0.0155,-0.042,-0.1635,-0.2675,-0.1395,-0.083,-0.0845,-0.0565,0.077,-0.0055
0.07,0.038,0.028,-0.0105,-0.033,0.0245,0.0085,-0.0465,-0.1685,-0.2735,-0.145,-0.09,-0.0895,-0.0565,0.082,-0.001
0.071,0.0065,0.0265,0.02,-0.0165,-0.0065,0.0225,-0.04,-0.1625,-0.2675,-0.1385,-0.0845,-0.084,-0.0565,0.09,-0.004
0.072,-0.018,0.029,0.0475,-0.006,-0.0325,0.038,-0.0375,-0.1605,-0.2625,-0.1365,-0.081,-0.0805,-0.0565,0.089,-0.006
0.073,-0.021,0.033,0.054,-0.006,-0.0375,0.043,-0.0315,-0.1525,-0.2545,-0.1295,-0.076,-0.074,-0.056,0.084,-0.006
0.074,-0.0155,0.0355,0.051,-0.0105,-0.033,0.043,-0.032,-0.152,-0.2555,-0.129,-0.0745,-0.0725,-0.056,0.09,0.0
0.075,-0.031,0.027,0.0585,0.0015,-0.0445,0.0425,-0.0305,-0.153,-0.256,-0.1305,-0.0745,-0.0725,-0.061,0.0845,0.0015
0.076,-0.0275,0.034,0.062,-0.0035,-0.045,0.048,-0.025,-0.1505,-0.2525,-0.1265,-0.071,-0.0705,-0.062,0.0955,-0.0005
0.077,-0.0045,0.0385,0.043,-0.0175,-0.0235,0.04,-0.034,-0.1585,-0.2595,-0.1345,-0.0785,-0.078,-0.061,0.104,-0.0045
0.078,0.026,0.0355,0.009,-0.031,0.009,0.0215,-0.047,-0.173,-0.275,-0.1495,-0.0955,-0.0935,-0.0625,0.091,-0.005
0.079,0.039,0.035,-0.004,-0.0375,0.0215,0.015,-0.052,-0.1765,-0.2795,-0.153,-0.1,-0.098,-0.063,0.088,-0.006
0.08,0.019,0.0305,0.0115,-0.0245,0.0035,0.0205,-0.0445,-0.169,-0.2715,-0.146,-0.092,-0.091,-0.0645,0.08,-0.013
0.081,-0.0065,0.022,0.0285,-0.008,-0.0175,0.025,-0.038,-0.165,-0.2675,-0.1425,-0.0875,-0.088,-0.068,0.074,-0.017
0.082,-0.015,0.037,0.0515,-0.011,-0.033,0.044,-0.0425,-0.169,-0.2725,-0.1465,-0.092,-0.091,-0.067,0.0845,-0.019
0.083,-0.008,0.05,0.0575,-0.0215,-0.0325,0.053,-0.0505,-0.1775,-0.282,-0.154,-0.101,-0.0985,-0.067,0.0965,-0.0175
0.084,0.0025,0.0405,0.038,-0.0215,-0.0175,0.0385,-0.047,-0.174,-0.2795,-0.152,-0.098,-0.0955,-0.067,0.0945,-0.0155
0.085,0.012,0.0405,0.0285,-0.0265,-0.008,0.034,-0.0375,-0.1675,-0.2745,-0.1425,-0.089,-0.088,-0.0655,0.0905,-0.02
0.086,0.01,0.059,0.049,-0.0345,-0.0195,0.0535,-0.04,-0.1685,-0.275,-0.143,-0.089,-0.0895,-0.0645,0.092,-0.02
0.087,0.001,0.081,0.08,-0.041,-0.0395,0.08,-0.0505,-0.177,-0.282,-0.151,-0.098,-0.097,-0.0635,0.105,-0.0155
0.088,-0.0005,0.076,0.0765,-0.038,-0.038,0.076,-0.0485,-0.178,-0.2825,-0.15,-0.0985,-0.0965,-0.0635,0.1025,-0.0165
0.089,0.0035,0.0405,0.037,-0.022,-0.0165,0.038,-0.0345,-0.166,-0.2715,-0.139,-0.084,-0.084,-0.061,0.0745,-0.0195
0.09,0.0015,0.0295,0.028,-0.016,-0.013,0.028,-0.0305,-0.1635,-0.2675,-0.1345,-0.08,-0.078,-0.057,0.072,-0.023
0.091,-0.0265,0.045,0.0715,-0.0095,-0.049,0.058,-0.0255,-0.1565,-0.262,-0.1285,-0.075,-0.073,-0.0545,0.0865,-0.0195
0.092,-0.0275,0.0515,0.079,-0.012,-0.053,0.065,-0.0315,-0.1595,-0.2655,-0.1335,-0.0785,-0.0785,-0.053,0.093,-0.024
0.093,0.008,0.0475,0.0395,-0.028,-0.0155,0.043,-0.0485,-0.1755,-0.2795,-0.149,-0.0955,-0.0935,-0.0525,0.0825,-0.0305
0.094,0.0085,0.05,0.0415,-0.029,-0.0165,0.045,-0.0445,-0.171,-0.2785,-0.1455,-0.0935,-0.092,-0.0545,0.085,-0.024
0.095,-0.012,0.039,0.0515,-0.0135,-0.0315,0.045,-0.036,-0.1625,-0.269,-0.137,-0.0845,-0.0825,-0.056,0.0865,-0.019
0.096,-0.025,0.031,0.056,-0.0035,-0.04,0.043,-0.0395,-0.166,-0.27,-0.1405,-0.087,-0.086,-0.0565,0.087,-0.015
0.097,-0.014,0.048,0.0625,-0.017,-0.038,0.0545,-0.042,-0.17,-0.2725,-0.143,-0.0905,-0.0885,-0.0575,0.1005,-0.0215
0.098,-0.0075,0.0435,0.0505,-0.018,-0.0285,0.0465,-0.0455,-0.172,-0.2755,-0.1465,-0.095,-0.093,-0.059,0.0985,-0.0135
0.099,-0.0135,0.049,0.0625,-0.018,-0.0375,0.055,-0.045,-0.17,-0.275,-0.148,-0.0975,-0.0965,-0.063,0.11,0.0065
0.1,-0.0355,0.049,0.0845,-0.007,-0.06,0.0665,-0.0445,-0.1705,-0.2755,-0.1485,-0.0975,-0.0955,-0.0645,0.123,0.0085
0.101,-0.021,0.049,0.07,-0.0145,-0.045,0.059,-0.044,-0.1705,-0.276,-0.1485,-0.0975,-0.096,-0.065,0.1115,0.003
0.102,0.0375,0.082,0.0445,-0.06,-0.003,0.0625,-0.0385,-0.166,-0.2705,-0.1425,-0.0915,-0.09,-0.066,0.1005,-0.0075
0.103,0.028,0.071,0.0425,-0.05,-0.007,0.056,-0.0455,-0.173,-0.277,-0.149,-0.0975,-0.096,-0.0645,0.102,-0.01
0.104,0.0045,0.0515,0.047,-0.0285,-0.021,0.049,-0.054,-0.183,-0.286,-0.159,-0.1075,-0.106,-0.063,0.106,-0.0045
0.105,0.022,0.059,0.0375,-0.041,-0.0075,0.048,-0.0535,-0.1825,-0.286,-0.1585,-0.107,-0.104,-0.062,0.1065,-0.009
0.106,0.0195,0.0695,0.05,-0.045,-0.015,0.0595,-0.046,-0.1745,-0.2745,-0.148,-0.0975,-0.0945,-0.061,0.107,-0.0115
0.107,0.0105,0.071,0.0605,-0.0415,-0.0245,0.0655,-0.043,-0.1725,-0.272,-0.1455,-0.095,-0.0925,-0.061,0.103,-0.008
0.108,0.014,0.0495,0.036,-0.032,-0.0105,0.042,-0.0425,-0.1705,-0.2705,-0.145,-0.0955,-0.0935,-0.06,0.09,-0.0045
0.109,0.008,0.05,0.0425,-0.029,-0.017,0.0455,-0.0405,-0.169,-0.267,-0.1415,-0.091,-0.09,-0.0585,0.1005,-0.009
0.11,0.0065,0.09,0.0835,-0.0485,-0.0385,0.0865,-0.046,-0.1745,-0.272,-0.1445,-0.0935,-0.091,-0.056,0.128,-0.0175
0.111,-0.0065,0.0545,0.061,-0.0245,-0.0335,0.0575,-0.04,-0.169,-0.2665,-0.1395,-0.091,-0.0875,-0.0545,0.0995,-0.016
0.112,-0.0135,0.03,0.0435,-0.0085,-0.0285,0.0365,-0.03,-0.1595,-0.255,-0.13,-0.081,-0.0775,-0.057,0.085,-0.0215
0.113,-0.001,0.078,0.079,-0.039,-0.0395,0.078,-0.03,-0.161,-0.254,-0.129,-0.0805,-0.077,-0.0585,0.1015,-0.0225
0.114,-0.001,0.055,0.056,-0.027,-0.028,0.055,-0.0305,-0.1625,-0.2565,-0.131,-0.0825,-0.079,-0.059,0.0925,-0.0175
0.115,0.011,0.062,0.0515,-0.0365,-0.02,0.0565,-0.0345,-0.1655,-0.2595,-0.1355,-0.088,-0.0855,-0.0595,0.107,-0.0235
0.116,0.0215,0.104,0.0825,-0.063,-0.0305,0.0925,-0.039,-0.172,-0.2625,-0.14,-0.094,-0.0905,-0.0575,0.134,-0.0285
0.117,0.018,0.0985,0.081,-0.0585,-0.031,0.0895,-0.023,-0.157,-0.247,-0.1255,-0.077,-0.0765,-0.0575,0.1375,-0.028
0.118,0.0165,0.0975,0.081,-0.0575,-0.032,0.089,-0.013,-0.146,-0.235,-0.114,-0.068,-0.069,-0.0585,0.13,-0.025
0.119,0.0155,0.1035,0.0875,-0.06,-0.0355,0.095,-0.0215,-0.151,-0.2395,-0.12,-0.075,-0.077,-0.06,0.1495,-0.0235
0.12,-0.009,0.111,0.1195,-0.051,-0.064,0.1145,-0.0215,-0.153,-0.2435,-0.1235,-0.0755,-0.0795,-0.062,0.1725,-0.0185
0.121,-0.024,0.1065,0.1305,-0.0415,-0.077,0.118,-0.0195,-0.1565,-0.2465,-0.1245,-0.0785,-0.076,-0.061,0.17,-0.012
0.122,0.013,0.099,0.086,-0.056,-0.036,0.092,-0.026,-0.1605,-0.2515,-0.132,-0.086,-0.081,-0.06,0.167,-0.0115
0.123,0.0225,0.098,0.0755,-0.0605,-0.0265,0.0865,-0.025,-0.1615,-0.2515,-0.1305,-0.0855,-0.085,-0.061,0.1615,-0.0155
0.124,-0.0055,0.102,0.1075,-0.0485,-0.0565,0.1045,-0.013,-0.151,-0.2435,-0.1195,-0.075,-0.0755,-0.062,0.165,-0.02
0.125,-0.0185,0.1105,0.129,-0.046,-0.0735,0.119,-0.006,-0.144,-0.237,-0.114,-0.068,-0.0685,-0.061,0.165,-0.0195
0.126,-0.02,0.101,0.121,-0.041,-0.07,0.1105,0.0005,-0.1375,-0.23,-0.107,-0.062,-0.061,-0.0605,0.1515,-0.019
0.127,-0.0075,0.127,0.134,-0.06,-0.0705,0.13,-0.0065,-0.1445,-0.24,-0.115,-0.0685,-0.0685,-0.061,0.1735,-0.0175
0.128,0.0015,0.1295,0.128,-0.066,-0.063,0.128,-0.01,-0.1515,-0.245,-0.1195,-0.0695,-0.0705,-0.0595,0.18,-0.0155
0.129,0.005,0.0955,0.0905,-0.0505,-0.0425,0.0925,0.001,-0.143,-0.2355,-0.108,-0.06,-0.062,-0.0605,0.157,-0.0165
0.13,0.0045,0.112,0.107,-0.0585,-0.051,0.109,-0.0035,-0.1485,-0.2375,-0.105,-0.063,-0.0655,-0.059,0.167,-0.022
0.131,-0.003,0.112,0.115,-0.055,-0.0585,0.113,-0.004,-0.147,-0.236,-0.104,-0.062,-0.063,-0.0555,0.166,-0.0245
0.132,0.0075,0.1135,0.1065,-0.0605,-0.049,0.1095,-0.0095,-0.153,-0.2395,-0.113,-0.067,-0.068,-0.055,0.168,-0.027
0.133,0.027,0.1285,0.101,-0.078,-0.037,0.1145,-0.0175,-0.1605,-0.2455,-0.119,-0.073,-0.0735,-0.054,0.182,-0.0285
0.134,0.0245,0.1375,0.1125,-0.081,-0.044,0.1245,-0.0165,-0.157,-0.245,-0.12,-0.072,-0.072,-0.055,0.186,-0.0275
0.135,0.0025,0.149,0.1465,-0.076,-0.0715,0.147,-0.016,-0.156,-0.241,-0.1155,-0.0685,-0.067,-0.0565,0.2055,-0.028
0.136,0.0,0.152,0.152,-0.076,-0.076,0.1515,-0.006,-0.144,-0.231,-0.104,-0.057,-0.056,-0.057,0.2095,-0.025
0.137,-0.006,0.168,0.174,-0.0815,-0.09,0.171,0.008,-0.13,-0.2165,-0.092,-0.0435,-0.043,-0.0605,0.204,-0.026
0.138,-0.01,0.168,0.178,-0.0795,-0.094,0.1725,0.002,-0.136,-0.2205,-0.096,-0.046,-0.045,-0.061,0.204,-0.0205
0.139,-0.0085,0.1405,0.149,-0.0665,-0.0785,0.144,-0.0175,-0.154,-0.2375,-0.111,-0.061,-0.0585,-0.063,0.198,-0.0175
0.14,-0.0185,0.122,0.1405,-0.052,-0.079,0.131,-0.029,-0.1675,-0.2465,-0.1195,-0.073,-0.071,-0.0705,0.1975,-0.0255
0.141,0.0015,0.115,0.1135,-0.0585,-0.056,0.114,-0.042,-0.175,-0.2545,-0.128,-0.081,-0.08,-0.072,0.1985,-0.031
0.142,0.013,0.1315,0.119,-0.0725,-0.053,0.125,-0.0465,-0.1755,-0.2565,-0.1285,-0.083,-0.08,-0.0715,0.2085,-0.0365
0.143,0.004,0.152,0.1475,-0.0785,-0.0715,0.149,-0.0465,-0.176,-0.2555,-0.1275,-0.0785,-0.0785,-0.0705,0.214,-0.0415
0.144,0.011,0.151,0.1395,-0.081,-0.064,0.1445,-0.0445,-0.1705,-0.2485,-0.12,-0.072,-0.071,-0.067,0.206,-0.0435
0.145,0.021,0.1655,0.1445,-0.0935,-0.0615,0.1545,-0.0385,-0.1625,-0.242,-0.111,-0.065,-0.0615,-0.064,0.2095,-0.044
0.146,0.0155,0.1735,0.1575,-0.095,-0.0705,0.165,-0.037,-0.159,-0.2405,-0.108,-0.059,-0.057,-0.0625,0.2085,-0.043
0.147,-0.002,0.166,0.1685,-0.082,-0.085,0.167,-0.0435,-0.165,-0.2465,-0.111,-0.0645,-0.062,-0.063,0.211,-0.037
0.148,0.006,0.148,0.1415,-0.0775,-0.0675,0.144,-0.0465,-0.165,-0.245,-0.1105,-0.0625,-0.061,-0.0605,0.207,-0.03
0.149,0.0175,0.1425,0.125,-0.08,-0.0535,0.133,-0.0415,-0.1565,-0.233,-0.099,-0.049,-0.048,-0.057,0.1995,-0.029
0.15,0.005,0.158,0.153,-0.0815,-0.074,0.155,-0.033,-0.1465,-0.222,-0.085,-0.036,-0.033,-0.0545,0.202,-0.027
0.151,-0.0035,0.1575,0.161,-0.077,-0.082,0.159,-0.038,-0.147,-0.221,-0.0835,-0.0325,-0.0295,-0.0545,0.2035,-0.027
0.152,-0.004,0.1525,0.1565,-0.0745,-0.08,0.1535,-0.0485,-0.157,-0.2295,-0.09,-0.038,-0.036,-0.052,0.2115,-0.0285
0.153,0.006,0.1615,0.156,-0.084,-0.0745,0.1585,-0.0585,-0.1665,-0.2385,-0.0985,-0.047,-0.0425,-0.0495,0.224,-0.022
0.154,0.028,0.2005,0.1725,-0.1145,-0.072,0.186,-0.085,-0.1935,-0.264,-0.124,-0.0715,-0.0685,-0.05,0.258,-0.013
0.155,0.0445,0.188,0.1435,-0.1165,-0.049,0.165,-0.0835,-0.192,-0.26,-0.1205,-0.0695,-0.0655,-0.047,0.2495,-0.0195
0.156,0.0385,0.1605,0.1225,-0.1,-0.0415,0.141,-0.07,-0.1765,-0.242,-0.1045,-0.054,-0.05,-0.0455,0.2195,-0.026
0.157,0.016,0.1685,0.1525,-0.0925,-0.068,0.16,-0.0655,-0.174,-0.2395,-0.1035,-0.0525,-0.0495,-0.0435,0.2325,-0.0285
0.158,-0.007,0.1535,0.1605,-0.0735,-0.0835,0.1565,-0.055,-0.1645,-0.2285,-0.0955,-0.043,-0.039,-0.044,0.2335,-0.0225
0.159,-0.013,0.1535,0.1665,-0.0705,-0.0895,0.1595,-0.0575,-0.1695,-0.233,-0.0975,-0.0455,-0.0425,-0.0445,0.224,-0.021
0.16,-0.015,0.1565,0.1715,-0.071,-0.093,0.1635,-0.0565,-0.1705,-0.2335,-0.0975,-0.0445,-0.0415,-0.045,0.2155,-0.0425
0.161,-0.0165,0.1635,0.18,-0.074,-0.098,0.1715,-0.0535,-0.1665,-0.231,-0.0935,-0.0405,-0.0375,-0.044,0.217,-0.042
0.162,-0.0065,0.19,0.1965,-0.092,-0.1015,0.193,-0.056,-0.164,-0.2325,-0.094,-0.041,-0.038,-0.04,0.233,-0.034
0.163,0.0025,0.191,0.1885,-0.097,-0.0925,0.189,-0.058,-0.1655,-0.234,-0.095,-0.0425,-0.0385,-0.0365,0.234,-0.034
0.164,0.0175,0.18,0.1625,-0.099,-0.0725,0.171,-0.0685,-0.175,-0.242,-0.101,-0.0485,-0.046,-0.033,0.2295,-0.04
0.165,0.053,0.174,0.121,-0.1135,-0.034,0.147,-0.076,-0.1795,-0.25,-0.108,-0.053,-0.0515,-0.029,0.2235,-0.042
0.166,0.074,0.161,0.0875,-0.1175,-0.0065,0.124,-0.0755,-0.179,-0.251,-0.107,-0.0535,-0.0505,-0.0255,0.212,-0.0265
0.167,0.0585,0.1625,0.104,-0.111,-0.0225,0.133,-0.08,-0.181,-0.2505,-0.1065,-0.0525,-0.0475,-0.021,0.2145,-0.022
0.168,0.0515,0.159,0.108,-0.1055,-0.028,0.133,-0.0755,-0.1695,-0.242,-0.0945,-0.0395,-0.0335,-0.0135,0.202,-0.0235
0.169,0.056,0.177,0.1215,-0.1165,-0.0325,0.1485,-0.0735,-0.165,-0.236,-0.0865,-0.0325,-0.025,-0.006,0.204,-0.025
0.17,0.068,0.194,0.126,-0.1315,-0.0285,0.1595,-0.078,-0.17,-0.238,-0.0895,-0.033,-0.025,-0.001,0.223,-0.02
0.171,0.069,0.165,0.096,-0.1175,-0.013,0.13,-0.076,-0.1655,-0.234,-0.084,-0.0275,-0.02,0.0,0.2135,-0.008
0.172,0.054,0.167,0.113,-0.1105,-0.0295,0.1395,-0.082,-0.171,-0.238,-0.0885,-0.032,-0.025,0.0015,0.214,-0.009
0.173,0.0565,0.1715,0.115,-0.1145,-0.029,0.143,-0.089,-0.1765,-0.2455,-0.0965,-0.037,-0.03,0.004,0.2115,-0.003
0.174,0.073,0.17,0.097,-0.122,-0.0115,0.133,-0.0925,-0.1805,-0.2495,-0.101,-0.042,-0.034,0.006,0.211,0.0125
0.175,0.068,0.169,0.1005,-0.119,-0.016,0.1345,-0.0855,-0.1735,-0.2435,-0.096,-0.038,-0.031,0.006,0.2085,0.009
0.176,0.044,0.146,0.1015,-0.0955,-0.0285,0.123,-0.079,-0.166,-0.2365,-0.091,-0.031,-0.026,0.007,0.1985,0.0075
0.177,0.042,0.146,0.104,-0.094,-0.031,0.1245,-0.082,-0.1695,-0.2405,-0.0975,-0.0385,-0.033,0.006,0.21,0.0095
0.178,0.0485,0.153,0.105,-0.101,-0.028,0.1285,-0.083,-0.172,-0.2465,-0.1045,-0.045,-0.041,-0.0005,0.2125,0.0025
0.179,0.0475,0.1815,0.134,-0.1145,-0.043,0.1575,-0.0965,-0.189,-0.2645,-0.119,-0.06,-0.057,-0.005,0.233,0.0015
0.18,0.041,0.1755,0.1345,-0.1085,-0.047,0.1545,-0.0985,-0.1955,-0.274,-0.126,-0.068,-0.063,-0.0105,0.237,0.0105
0.181,0.0255,0.125,0.0995,-0.0755,-0.037,0.1115,-0.085,-0.1855,-0.265,-0.118,-0.058,-0.054,-0.016,0.1975,0.016
0.182,0.0065,0.126,0.1195,-0.0665,-0.0565,0.122,-0.0825,-0.186,-0.266,-0.1165,-0.0565,-0.0525,-0.016,0.187,-0.0005
0.183,0.001,0.1165,0.116,-0.059,-0.057,0.1155,-0.08,-0.184,-0.2665,-0.1175,-0.0555,-0.052,-0.0175,0.189,-0.01
0.184,-0.0035,0.1165,0.12,-0.0565,-0.0615,0.118,-0.0785,-0.1845,-0.269,-0.12,-0.059,-0.056,-0.0205,0.1795,-0.0025
0.185,-0.0195,0.1335,0.153,-0.0575,-0.086,0.143,-0.071,-0.1845,-0.269,-0.119,-0.06,-0.054,-0.023,0.176,-0.001
0.186,-0.011,0.123,0.134,-0.056,-0.072,0.128,-0.0725,-0.191,-0.2745,-0.124,-0.063,-0.06,-0.0265,0.1805,0.0025
0.187,0.006,0.101,0.095,-0.054,-0.0445,0.0975,-0.0785,-0.1975,-0.282,-0.131,-0.071,-0.07,-0.027,0.1785,0.0025
0.188,-0.003,0.0915,0.0945,-0.0445,-0.0485,0.0925,-0.0805,-0.2015,-0.286,-0.135,-0.077,-0.074,-0.028,0.18,-0.003
0.189,0.0075,0.1115,0.104,-0.06,-0.048,0.1075,-0.0975,-0.22,-0.303,-0.154,-0.0955,-0.092,-0.0285,0.183,-0.013
0.19,0.034,0.106,0.0715,-0.0705,-0.0185,0.0885,-0.096,-0.2195,-0.303,-0.1555,-0.0985,-0.0945,-0.029,0.1675,-0.0175
0.191,0.031,0.086,0.055,-0.0585,-0.012,0.07,-0.0825,-0.209,-0.2925,-0.1455,-0.0875,-0.085,-0.032,0.135,-0.008
0.192,0.003,0.0765,0.073,-0.04,-0.0345,0.074,-0.078,-0.208,-0.2895,-0.1445,-0.085,-0.083,-0.03,0.131,-0.0105
0.193,0.0,0.095,0.095,-0.048,-0.047,0.0945,-0.0645,-0.1945,-0.278,-0.133,-0.0755,-0.0725,-0.0295,0.142,-0.0185
0.194,-0.001,0.1085,0.1095,-0.054,-0.055,0.1085,-0.049,-0.18,-0.2665,-0.1235,-0.065,-0.0635,-0.033,0.1275,-0.0195
0.195,-0.0235,0.082,0.1055,-0.0295,-0.064,0.093,-0.052,-0.185,-0.272,-0.13,-0.0725,-0.0695,-0.0345,0.1195,-0.0275
0.196,-0.0215,0.08,0.102,-0.0295,-0.0615,0.0905,-0.0635,-0.1995,-0.2855,-0.1435,-0.085,-0.082,-0.0375,0.129,-0.0305
0.197,-0.0155,0.1005,0.116,-0.0425,-0.066,0.108,-0.0725,-0.2105,-0.2965,-0.1555,-0.0975,-0.0945,-0.0405,0.1405,-0.0265
0.198,-0.0175,0.103,0.121,-0.043,-0.069,0.1115,-0.0735,-0.209,-0.297,-0.1545,-0.0995,-0.097,-0.0405,0.136,-0.0215
0.199,-0.0325,0.0785,0.111,-0.023,-0.072,0.0945,-0.0665,-0.202,-0.291,-0.153,-0.096,-0.0945,-0.042,0.13,-0.015
0.2,-0.0055,0.0685,0.074,-0.0315,-0.0395,0.071,-0.065,-0.2035,-0.291,-0.1535,-0.098,-0.096,-0.0445,0.1275,-0.014
0.201,0.0235,0.0645,0.0405,-0.044,-0.008,0.052,-0.078,-0.216,-0.304,-0.166,-0.11,-0.109,-0.0445,0.1305,-0.0165
0.202,0.001,0.041,0.04,-0.0215,-0.019,0.04,-0.081,-0.222,-0.3105,-0.173,-0.1175,-0.115,-0.048,0.1175,-0.019
0.203,0.008,0.057,0.0485,-0.033,-0.02,0.052,-0.071,-0.2145,-0.303,-0.1635,-0.1085,-0.107,-0.05,0.115,-0.0155
0.204,0.0045,0.072,0.0675,-0.0385,-0.0315,0.069,-0.0755,-0.216,-0.3045,-0.166,-0.1085,-0.1085,-0.0485,0.121,-0.005
0.205,-0.0045,0.0675,0.072,-0.032,-0.038,0.0695,-0.0735,-0.2135,-0.3025,-0.163,-0.1085,-0.106,-0.0485,0.1155,0.0075
0.206,0.006,0.068,0.062,-0.037,-0.028,0.0645,-0.0675,-0.208,-0.299,-0.159,-0.104,-0.1035,-0.0495,0.121,0.0105
0.207,-0.0055,0.057,0.0625,-0.026,-0.0335,0.059,-0.069,-0.211,-0.3035,-0.1615,-0.107,-0.106,-0.05,0.12,0.0195
0.208,-0.0085,0.067,0.076,-0.0295,-0.042,0.071,-0.0755,-0.217,-0.313,-0.17,-0.1165,-0.115,-0.0525,0.128,0.027
0.209,-0.0065,0.0575,0.064,-0.026,-0.035,0.06,-0.073,-0.2145,-0.313,-0.1705,-0.1155,-0.117,-0.054,0.1135,0.0225
0.21,-0.01,0.04,0.05,-0.015,-0.0295,0.0445,-0.0625,-0.2065,-0.3035,-0.16,-0.108,-0.109,-0.0525,0.106,0.024
0.211,-0.011,0.0305,0.0415,-0.01,-0.026,0.0355,-0.061,-0.2015,-0.3,-0.157,-0.1045,-0.106,-0.0525,0.1045,0.0235
0.212,-0.0155,0.0125,0.0275,0.0015,-0.021,0.0195,-0.0565,-0.199,-0.2975,-0.1555,-0.101,-0.1035,-0.053,0.0915,0.023
0.213,-0.027,0.0205,0.047,0.003,-0.0365,0.033,-0.057,-0.2015,-0.299,-0.157,-0.1035,-0.105,-0.0545,0.094,0.0215
0.214,-0.033,0.027,0.0605,0.003,-0.0465,0.043,-0.0605,-0.2055,-0.3025,-0.1615,-0.108,-0.1085,-0.056,0.093,0.017
0.215,-0.0365,0.0335,0.07,0.001,-0.053,0.0515,-0.0625,-0.208,-0.3075,-0.1665,-0.111,-0.114,-0.059,0.101,0.012
0.216,-0.0575,0.0415,0.0985,0.0075,-0.0775,0.0695,-0.061,-0.2065,-0.303,-0.162,-0.1075,-0.1095,-0.06,0.111,0.012
0.217,-0.0795,0.0425,0.122,0.018,-0.1005,0.082,-0.0555,-0.2025,-0.2965,-0.1575,-0.1035,-0.104,-0.0595,0.1185,0.005
0.218,-0.088,0.0285,0.1165,0.0295,-0.102,0.072,-0.051,-0.1985,-0.2935,-0.155,-0.0985,-0.1005,-0.0625,0.1135,0.0
0.219,-0.074,0.0395,0.1135,0.017,-0.0935,0.076,-0.0595,-0.2075,-0.3015,-0.163,-0.108,-0.11,-0.066,0.1185,0.002
0.22,-0.037,0.0605,0.0975,-0.012,-0.067,0.0785,-0.0745,-0.2215,-0.317,-0.179,-0.124,-0.127,-0.067,0.1285,0.002
0.221,-0.018,0.018,0.036,-0.0005,-0.0265,0.027,-0.065,-0.2135,-0.3095,-0.1705,-0.1145,-0.1185,-0.066,0.0965,0.005
0.222,-0.025,-0.0025,0.0225,0.0135,-0.0235,0.01,-0.054,-0.202,-0.301,-0.159,-0.1045,-0.109,-0.067,0.07,-0.005
0.223,-0.036,0.0255,0.061,0.005,-0.0485,0.043,-0.064,-0.2115,-0.311,-0.1695,-0.114,-0.118,-0.0665,0.0945,-0.0065
0.224,-0.044,0.0225,0.0665,0.0105,-0.055,0.044,-0.0705,-0.218,-0.316,-0.1755,-0.1195,-0.123,-0.0655,0.104,0.0025
0.225,-0.0265,0.0225,0.049,0.0015,-0.0375,0.035,-0.0725,-0.2165,-0.3175,-0.175,-0.12,-0.124,-0.0645,0.0995,-0.0005
0.226,-0.019,0.0465,0.0655,-0.014,-0.042,0.0555,-0.069,-0.215,-0.3165,-0.1735,-0.1195,-0.124,-0.067,0.1015,-0.0025
0.227,-0.0305,0.024,0.0545,0.003,-0.0425,0.039,-0.0515,-0.1985,-0.2995,-0.157,-0.1025,-0.107,-0.067,0.0735,-0.007
0.228,-0.019,0.022,0.041,-0.0015,-0.03,0.031,-0.0525,-0.2,-0.2995,-0.156,-0.1015,-0.105,-0.064,0.0715,-0.0125
0.229,-0.0185,0.035,0.0535,-0.0085,-0.036,0.0435,-0.065,-0.214,-0.315,-0.1705,-0.1125,-0.117,-0.063,0.087,-0.009
0.23,-0.0225,0.028,0.0505,-0.003,-0.0365,0.0385,-0.065,-0.2115,-0.3135,-0.1695,-0.1105,-0.1145,-0.0605,0.091,-0.0085
0.231,-0.0145,0.036,0.0505,-0.011,-0.032,0.0425,-0.066,-0.211,-0.3125,-0.168,-0.1115,-0.115,-0.061,0.0995,-0.01
0.232,-0.0195,0.0295,0.049,-0.0055,-0.034,0.0385,-0.067,-0.2125,-0.314,-0.1715,-0.113,-0.117,-0.0615,0.099,-0.0085
0.233,-0.0355,0.026,0.061,0.0045,-0.048,0.043,-0.0635,-0.208,-0.3105,-0.167,-0.1085,-0.112,-0.06,0.0925,-0.0075
0.234,-0.0545,0.017,0.0715,0.0185,-0.0625,0.044,-0.0535,-0.1985,-0.3035,-0.157,-0.0985,-0.102,-0.0615,0.089,-0.007
0.235,-0.0835,0.023,0.1065,0.03,-0.095,0.0645,-0.047,-0.1925,-0.2965,-0.152,-0.0915,-0.097,-0.0625,0.0965,-0.009
0.236,-0.081,0.028,0.109,0.026,-0.0945,0.068,-0.046,-0.1925,-0.2975,-0.15,-0.0905,-0.0945,-0.062,0.0945,-0.01
0.237,-0.053,0.0225,0.0755,0.015,-0.064,0.0485,-0.0525,-0.199,-0.305,-0.1565,-0.0965,-0.102,-0.064,0.098,-0.0095
0.238,-0.0325,0.018,0.0505,0.007,-0.0415,0.034,-0.062,-0.208,-0.313,-0.1675,-0.1045,-0.1125,-0.0655,0.1,-0.0115
0.239,-0.007,0.0165,0.023,-0.005,-0.0145,0.019,-0.067,-0.216,-0.3205,-0.1745,-0.1115,-0.117,-0.064,0.091,-0.013
0.24,-0.0025,0.038,0.04,-0.018,-0.021,0.0385,-0.075,-0.2225,-0.326,-0.1805,-0.118,-0.1245,-0.0645,0.1075,-0.015
0.241,-0.0135,0.0515,0.065,-0.019,-0.0395,0.0575,-0.07,-0.2165,-0.321,-0.174,-0.111,-0.1175,-0.064,0.1175,-0.015
0.242,-0.0355,0.039,0.0745,-0.002,-0.055,0.056,-0.0555,-0.201,-0.305,-0.158,-0.0945,-0.0995,-0.062,0.1005,-0.014
0.243,-0.053,0.021,0.074,0.0155,-0.063,0.047,-0.0535,-0.2005,-0.3045,-0.1585,-0.094,-0.1,-0.0635,0.087,-0.0185
0.244,-0.0535,0.0035,0.057,0.025,-0.055,0.0295,-0.056,-0.203,-0.307,-0.1605,-0.0975,-0.1025,-0.063,0.0715,-0.0215
0.245,-0.065,-0.0035,0.0615,0.0335,-0.063,0.0285,-0.0475,-0.193,-0.2945,-0.1485,-0.0865,-0.0915,-0.0595,0.064,-0.02
0.246,-0.0575,0.0435,0.101,0.0065,-0.079,0.0715,-0.0565,-0.2035,-0.3025,-0.1565,-0.094,-0.0995,-0.059,0.0885,-0.0185
0.247,-0.038,0.0545,0.093,-0.0085,-0.065,0.073,-0.0645,-0.209,-0.3095,-0.163,-0.1005,-0.1055,-0.058,0.0955,-0.0175
0.248,-0.025,0.025,0.05,-0.0005,-0.037,0.037,-0.0605,-0.209,-0.311,-0.162,-0.0975,-0.103,-0.057,0.089,-0.01
0.249,-0.004,0.0245,0.0285,-0.0105,-0.016,0.026,-0.069,-0.2215,-0.3195,-0.1725,-0.1075,-0.1125,-0.0575,0.0835,-0.0125
0.25,-0.002,0.023,0.025,-0.011,-0.0135,0.0235,-0.0685,-0.216,-0.315,-0.169,-0.106,-0.1125,-0.056,0.0715,-0.0255
0.251,-0.012,0.0195,0.0315,-0.004,-0.0215,0.025,-0.0615,-0.206,-0.307,-0.161,-0.0985,-0.1055,-0.054,0.0665,-0.0335
0.252,-0.025,0.027,0.0525,-0.001,-0.0385,0.0395,-0.0605,-0.202,-0.3055,-0.1615,-0.0995,-0.106,-0.054,0.066,-0.0425
0.253,-0.0305,0.0265,0.057,0.0015,-0.0435,0.0415,-0.062,-0.2075,-0.3095,-0.165,-0.1035,-0.111,-0.0545,0.061,-0.036
0.254,-0.019,0.0055,0.0245,0.0065,-0.0215,0.0145,-0.055,-0.204,-0.3065,-0.164,-0.1035,-0.1105,-0.0545,0.05,-0.0275
0.255,-0.004,0.018,0.0215,-0.007,-0.0125,0.0195,-0.059,-0.1975,-0.311,-0.172,-0.1125,-0.1205,-0.0565,0.0645,-0.0275
0.256,0.002,0.0245,0.0225,-0.0135,-0.01,0.023,-0.0605,-0.1995,-0.316,-0.179,-0.119,-0.1275,-0.0575,0.0705,-0.0255
0.257,-0.006,0.0205,0.0265,-0.0075,-0.016,0.023,-0.04,-0.18,-0.299,-0.167,-0.107,-0.1155,-0.0575,0.0585,-0.032
0.258,-0.0235,0.024,0.0475,-0.0005,-0.035,0.035,-0.0225,-0.163,-0.291,-0.164,-0.1085,-0.117,-0.0625,0.048,-0.038
0.259,-0.0395,0.0025,0.0425,0.018,-0.0405,0.022,-0.01,-0.144,-0.294,-0.1745,-0.1225,-0.133,-0.07,0.044,-0.031
0.26,-0.0505,-0.0235,0.0265,0.037,-0.0385,0.0015,-0.0025,-0.1265,-0.2925,-0.1845,-0.1375,-0.1505,-0.0765,0.0315,-0.032
0.261,-0.0535,-0.0385,0.015,0.0455,-0.034,-0.0115,0.0,-0.124,-0.2995,-0.2,-0.156,-0.1715,-0.0835,0.0085,-0.0405
0.262,-0.04,-0.0335,0.007,0.0365,-0.023,-0.013,0.016,-0.0965,-0.287,-0.198,-0.1635,-0.1845,-0.088,0.013,-0.046
0.263,-0.026,-0.0305,-0.0045,0.028,-0.0105,-0.0175,0.0385,-0.0655,-0.271,-0.196,-0.1715,-0.1975,-0.0965,0.0155,-0.055
0.264,-0.02,-0.0435,-0.0235,0.0315,0.002,-0.0335,0.062,-0.036,-0.2545,-0.191,-0.176,-0.205,-0.104,-0.0035,-0.059
0.265,-0.025,-0.0475,-0.0225,0.036,-0.001,-0.035,0.0875,0.0025,-0.224,-0.172,-0.1685,-0.204,-0.109,-0.0195,-0.0685
0.266,-0.0295,-0.04,-0.0105,0.0345,-0.009,-0.025,0.101,0.029,-0.2035,-0.162,-0.17,-0.2115,-0.111,-0.0165,-0.083
0.267,-0.0325,-0.0465,-0.014,0.0395,-0.009,-0.0305,0.1145,0.056,-0.182,-0.1495,-0.167,-0.214,-0.111,-0.0185,-0.0905
0.268,-0.0215,-0.042,-0.0205,0.0315,-0.0005,-0.031,0.122,0.0795,-0.167,-0.1425,-0.1705,-0.2225,-0.1105,-0.0215,-0.095
0.269,-0.0145,-0.0445,-0.03,0.0295,0.008,-0.0375,0.1385,0.115,-0.1345,-0.1195,-0.16,-0.2175,-0.105,-0.025,-0.1035
0.27,-0.0215,-0.0675,-0.046,0.0445,0.0125,-0.0565,0.1565,0.16,-0.0885,-0.0795,-0.1285,-0.1935,-0.094,-0.0405,-0.1095
0.271,-0.0125,-0.078,-0.0655,0.045,0.0265,-0.072,0.1625,0.2055,-0.0455,-0.0495,-0.1115,-0.184,-0.08,-0.048,-0.1145
0.272,0.0,-0.086,-0.086,0.043,0.043,-0.086,0.178,0.264,0.007,-0.016,-0.097,-0.1795,-0.069,-0.0485,-0.1285
0.273,0.015,-0.0725,-0.087,0.0285,0.051,-0.0795,0.188,0.3175,0.055,0.02,-0.082,-0.1755,-0.0535,-0.0475,-0.143
0.274,0.0295,-0.056,-0.0855,0.013,0.0575,-0.0705,0.1995,0.37,0.11,0.0585,-0.065,-0.1695,-0.0365,-0.0415,-0.1625
0.275,0.045,-0.042,-0.087,-0.002,0.0665,-0.0645,0.2075,0.4165,0.1605,0.0995,-0.0395,-0.153,-0.0165,-0.023,-0.178
0.276,0.056,-0.021,-0.077,-0.018,0.0665,-0.049,0.2075,0.465,0.221,0.153,-0.004,-0.129,0.0115,-0.012,-0.1935
0.277,0.0725,-0.0215,-0.0945,-0.0255,0.084,-0.058,0.205,0.497,0.2855,0.2165,0.0395,-0.1025,0.0385,-0.019,-0.2095
0.278,0.0975,-0.0135,-0.1105,-0.042,0.1045,-0.062,0.184,0.4905,0.3245,0.265,0.078,-0.0765,0.0705,-0.012,-0.2185
0.279,0.1115,0.035,-0.0765,-0.0735,0.0945,-0.021,0.1555,0.475,0.3685,0.317,0.116,-0.0495,0.106,0.019,-0.232
0.28,0.1095,0.0665,-0.043,-0.088,0.0765,0.0115,0.1405,0.476,0.4285,0.383,0.163,-0.0175,0.1375,0.0425,-0.2375
0.281,0.135,0.0775,-0.0575,-0.1065,0.0965,0.01,0.126,0.485,0.4995,0.457,0.22,0.0235,0.175,0.0575,-0.2385
0.282,0.198,0.092,-0.106,-0.1455,0.152,-0.007,0.0835,0.464,0.5515,0.522,0.2665,0.0555,0.2165,0.0765,-0.2435
0.283,0.235,0.11,-0.1245,-0.1725,0.18,-0.007,0.051,0.45,0.605,0.5925,0.3265,0.0995,0.259,0.0935,-0.2495
0.284,0.248,0.1645,-0.084,-0.2065,0.1665,0.0395,0.0315,0.4505,0.67,0.6755,0.4025,0.161,0.3065,0.1235,-0.252
0.285,0.2465,0.207,-0.0395,-0.227,0.1435,0.083,-0.003,0.4305,0.711,0.731,0.449,0.1955,0.349,0.1615,-0.2595
0.286,0.266,0.2215,-0.0445,-0.244,0.155,0.088,-0.042,0.3915,0.7525,0.798,0.5135,0.25,0.3995,0.19,-0.2645
0.287,0.291,0.2565,-0.0345,-0.274,0.163,0.1105,-0.0635,0.3705,0.8175,0.888,0.5935,0.314,0.451,0.216,-0.2745
0.288,0.299,0.307,0.008,-0.303,0.1455,0.157,-0.0795,0.355,0.89,0.9745,0.663,0.3655,0.4965,0.258,-0.2935
0.289,0.304,0.3515,0.0475,-0.328,0.1285,0.199,-0.1245,0.313,0.9535,1.0695,0.7465,0.4325,0.553,0.309,-0.3055
0.29,0.3025,0.408,0.1055,-0.3555,0.099,0.256,-0.1605,0.282,1.018,1.166,0.8375,0.508,0.611,0.3555,-0.322
0.291,0.316,0.464,0.148,-0.39,0.084,0.3055,-0.202,0.227,1.06,1.247,0.9205,0.5815,0.662,0.4015,-0.331
0.292,0.3255,0.512,0.187,-0.419,0.0695,0.349,-0.25,0.1435,1.0835,1.316,0.984,0.6325,0.7065,0.4495,-0.344
0.293,0.345,0.566,0.221,-0.456,0.062,0.393,-0.2765,0.088,1.134,1.392,1.043,0.6765,0.748,0.506,-0.3675
0.294,0.3505,0.5705,0.22,-0.4605,0.0655,0.3945,-0.2815,0.065,1.205,1.476,1.1085,0.726,0.7805,0.5445,-0.3825
0.295,0.314,0.598,0.284,-0.456,0.015,0.4405,-0.281,0.043,1.251,1.537,1.1595,0.7635,0.803,0.59,-0.39
0.296,0.2935,0.6505,0.3575,-0.472,-0.032,0.5035,-0.295,0.0045,1.2615,1.5665,1.191,0.794,0.818,0.6475,-0.396
0.297,0.2705,0.646,0.376,-0.4585,-0.0525,0.5105,-0.3065,-0.0495,1.24,1.569,1.212,0.82,0.8205,0.659,-0.398
0.298,0.23,0.6415,0.4115,-0.436,-0.0905,0.526,-0.317,-0.1015,1.1895,1.5405,1.213,0.835,0.814,0.6525,-0.379
0.299,0.1955,0.6535,0.458,-0.4245,-0.131,0.5555,-0.3335,-0.1535,1.1105,1.472,1.1875,0.8345,0.7955,0.67,-0.3425
0.3,0.203,0.6705,0.4675,-0.437,-0.132,0.5685,-0.3805,-0.2255,1.0305,1.398,1.1535,0.8235,0.782,0.688,-0.311
0.301,0.2085,0.677,0.468,-0.443,-0.1295,0.572,-0.4185,-0.2935,0.945,1.316,1.1095,0.805,0.761,0.694,-0.282
0.302,0.2055,0.67,0.464,-0.438,-0.129,0.5665,-0.425,-0.3355,0.8575,1.2245,1.058,0.78,0.7285,0.6985,-0.2535
0.303,0.2235,0.6435,0.42,-0.434,-0.098,0.531,-0.416,-0.349,0.7855,1.1395,1.0045,0.7495,0.6995,0.676,-0.224
0.304,0.2205,0.642,0.422,-0.4315,-0.1005,0.5315,-0.415,-0.3685,0.699,1.04,0.9355,0.7055,0.664,0.6555,-0.186
0.305,0.2105,0.61,0.3995,-0.4105,-0.094,0.504,-0.4285,-0.399,0.608,0.943,0.8725,0.67,0.6285,0.6315,-0.145
0.306,0.1845,0.5385,0.3535,-0.362,-0.084,0.4455,-0.445,-0.4415,0.4965,0.8285,0.8015,0.6315,0.587,0.582,-0.101
0.307,0.1605,0.5205,0.3595,-0.3405,-0.099,0.4395,-0.464,-0.4945,0.3815,0.716,0.729,0.591,0.5435,0.5645,-0.065
0.308,0.1495,0.502,0.3525,-0.326,-0.101,0.4265,-0.458,-0.5285,0.2665,0.607,0.654,0.545,0.496,0.553,-0.0315
0.309,0.122,0.4615,0.34,-0.292,-0.109,0.4,-0.436,-0.5645,0.128,0.4725,0.5605,0.4835,0.435,0.512,0.009
0.31,0.0895,0.42,0.3305,-0.255,-0.1205,0.3745,-0.4195,-0.624,-0.0295,0.329,0.4635,0.4245,0.3695,0.471,0.049
0.311,0.044,0.38,0.336,-0.212,-0.1455,0.3575,-0.4045,-0.685,-0.1875,0.19,0.3725,0.3685,0.306,0.453,0.0845
0.312,-0.0155,0.331,0.3465,-0.158,-0.181,0.3385,-0.3875,-0.7405,-0.334,0.06,0.2895,0.318,0.243,0.4395,0.113
0.313,-0.0535,0.3005,0.354,-0.1235,-0.2035,0.3265,-0.3645,-0.7875,-0.4825,-0.075,0.1965,0.2565,0.179,0.42,0.143
0.314,-0.08,0.259,0.3395,-0.09,-0.2095,0.299,-0.348,-0.837,-0.6245,-0.2045,0.107,0.199,0.1175,0.393,0.168
0.315,-0.1065,0.2095,0.316,-0.052,-0.211,0.2625,-0.344,-0.8875,-0.7335,-0.3035,0.037,0.15,0.065,0.366,0.188
0.316,-0.124,0.187,0.3105,-0.0315,-0.217,0.248,-0.3335,-0.903,-0.7815,-0.357,-0.012,0.1105,0.0285,0.341,0.199
0.317,-0.1415,0.1645,0.306,-0.0115,-0.2235,0.2345,-0.333,-0.9135,-0.8155,-0.4005,-0.056,0.0715,0.005,0.335,0.1995
0.318,-0.1235,0.172,0.2955,-0.0245,-0.209,0.2335,-0.3205,-0.892,-0.815,-0.4105,-0.075,0.0525,-0.008,0.3375,0.194
0.319,-0.1135,0.172,0.2855,-0.0295,-0.1995,0.2285,-0.297,-0.846,-0.7825,-0.3935,-0.0715,0.0535,-0.016,0.313,0.1925
0.32,-0.154,0.145,0.2985,0.0045,-0.226,0.221,-0.295,-0.827,-0.7695,-0.3915,-0.078,0.0435,-0.022,0.308,0.1985
0.321,-0.174,0.135,0.309,0.019,-0.241,0.2215,-0.3015,-0.814,-0.7615,-0.3945,-0.093,0.0255,-0.0305,0.3025,0.1975
0.322,-0.171,0.118,0.289,0.0265,-0.23,0.203,-0.3005,-0.796,-0.7575,-0.4015,-0.112,0.001,-0.0425,0.2775,0.197
0.323,-0.1395,0.0825,0.222,0.0285,-0.1805,0.1515,-0.3,-0.783,-0.7565,-0.41,-0.13,-0.024,-0.0505,0.2435,0.197
0.324,-0.124,0.0525,0.177,0.0355,-0.15,0.114,-0.302,-0.7765,-0.758,-0.42,-0.1485,-0.045,-0.0595,0.2075,0.197
0.325,-0.1355,0.047,0.1825,0.044,-0.159,0.114,-0.29,-0.7565,-0.751,-0.4245,-0.162,-0.059,-0.068,0.204,0.197
0.326,-0.127,0.0405,0.1675,0.043,-0.147,0.1035,-0.269,-0.735,-0.7465,-0.432,-0.1775,-0.08,-0.0815,0.1945,0.196
0.327,-0.133,0.03,0.163,0.051,-0.1475,0.096,-0.2485,-0.72,-0.7385,-0.431,-0.188,-0.095,-0.0975,0.179,0.1915
0.328,-0.144,0.032,0.1765,0.0555,-0.16,0.104,-0.2325,-0.7055,-0.7295,-0.43,-0.196,-0.107,-0.111,0.1705,0.183
0.329,-0.1535,0.0335,0.187,0.0595,-0.17,0.11,-0.216,-0.6885,-0.72,-0.4295,-0.202,-0.1185,-0.1235,0.17,0.171
0.33,-0.147,0.0335,0.1805,0.056,-0.1635,0.1065,-0.206,-0.6695,-0.706,-0.4245,-0.2085,-0.128,-0.1325,0.1755,0.159
0.331,-0.1305,0.0265,0.1575,0.0515,-0.1435,0.0915,-0.195,-0.643,-0.6905,-0.4205,-0.216,-0.142,-0.1395,0.165,0.1505
0.332,-0.14,0.021,0.1615,0.059,-0.1505,0.0905,-0.1765,-0.606,-0.6625,-0.4065,-0.21,-0.142,-0.1405,0.164,0.1405
0.333,-0.163,0.018,0.1815,0.0725,-0.172,0.099,-0.16,-0.5725,-0.636,-0.3885,-0.201,-0.1355,-0.14,0.163,0.135
0.334,-0.16,0.014,0.174,0.073,-0.1665,0.0935,-0.1585,-0.5515,-0.6215,-0.3805,-0.2005,-0.14,-0.141,0.1585,0.1285
0.335,-0.142,0.011,0.153,0.0655,-0.147,0.0815,-0.1745,-0.543,-0.6155,-0.3815,-0.2065,-0.151,-0.138,0.1565,0.1225
0.336,-0.1565,-0.0125,0.144,0.0845,-0.15,0.065,-0.1805,-0.5215,-0.6005,-0.3715,-0.2045,-0.1515,-0.134,0.146,0.1175
0.337,-0.1675,-0.022,0.1455,0.0945,-0.1565,0.061,-0.188,-0.5055,-0.589,-0.37,-0.209,-0.16,-0.1315,0.142,0.112
0.338,-0.1615,-0.015,0.1465,0.088,-0.154,0.065,-0.188,-0.49,-0.578,-0.3665,-0.2125,-0.167,-0.1305,0.1435,0.0995
0.339,-0.147,-0.008,0.139,0.0775,-0.143,0.065,-0.176,-0.4645,-0.5565,-0.3525,-0.2065,-0.1645,-0.128,0.14,0.0835
0.34,-0.113,0.002,0.1155,0.055,-0.114,0.0585,-0.1685,-0.4425,-0.5405,-0.3425,-0.203,-0.1655,-0.1235,0.1345,0.0755
0.341,-0.0885,0.0095,0.098,0.039,-0.093,0.053,-0.153,-0.411,-0.5155,-0.3255,-0.1945,-0.161,-0.119,0.13,0.0615
0.342,-0.0795,0.015,0.0945,0.032,-0.087,0.0545,-0.14,-0.3835,-0.493,-0.311,-0.1845,-0.155,-0.1125,0.1225,0.052
0.343,-0.082,0.007,0.0885,0.0375,-0.085,0.047,-0.131,-0.3625,-0.475,-0.296,-0.1745,-0.1475,-0.106,0.114,0.0455
0.344,-0.0835,0.018,0.1015,0.0325,-0.092,0.059,-0.1225,-0.341,-0.458,-0.2835,-0.1665,-0.143,-0.099,0.1175,0.038
0.345,-0.0745,0.021,0.0955,0.0265,-0.0845,0.0575,-0.113,-0.321,-0.442,-0.274,-0.162,-0.141,-0.092,0.1125,0.0405
0.346,-0.066,0.02,0.0855,0.0225,-0.0755,0.052,-0.102,-0.306,-0.4265,-0.263,-0.1555,-0.1365,-0.089,0.099,0.032
0.347,-0.059,0.031,0.09,0.0135,-0.0745,0.06,-0.096,-0.2945,-0.416,-0.256,-0.1505,-0.135,-0.0855,0.1,0.023
0.348,-0.067,0.0215,0.0885,0.0225,-0.0775,0.0545,-0.09,-0.2805,-0.4025,-0.2485,-0.148,-0.131,-0.0805,0.0995,0.0195
0.349,-0.075,0.017,0.092,0.029,-0.0835,0.054,-0.0765,-0.2615,-0.387,-0.2345,-0.137,-0.1235,-0.0765,0.098,0.0185
0.35,-0.067,0.0175,0.084,0.0245,-0.075,0.05,-0.067,-0.244,-0.373,-0.2235,-0.1305,-0.1175,-0.072,0.1,0.0175
0.351,-0.064,0.0125,0.076,0.0255,-0.07,0.044,-0.0605,-0.2345,-0.3625,-0.2155,-0.126,-0.113,-0.0695,0.095,0.0125
0.352,-0.0625,0.0035,0.066,0.029,-0.064,0.034,-0.0535,-0.225,-0.352,-0.2075,-0.1195,-0.1075,-0.068,0.086,0.0115
0.353,-0.0615,0.0225,0.0845,0.019,-0.0725,0.053,-0.0595,-0.226,-0.3525,-0.213,-0.1265,-0.1155,-0.0655,0.099,0.0105
0.354,-0.067,0.026,0.093,0.02,-0.08,0.0595,-0.06,-0.225,-0.352,-0.212,-0.1285,-0.1175,-0.0635,0.1025,0.0125
0.355,-0.0635,0.014,0.077,0.0245,-0.07,0.045,-0.055,-0.218,-0.3445,-0.2045,-0.1225,-0.1115,-0.063,0.089,0.001
0.356,-0.0575,0.025,0.0825,0.016,-0.0695,0.053,-0.059,-0.218,-0.3445,-0.206,-0.124,-0.114,-0.063,0.092,-0.007
0.357,-0.0435,0.0395,0.083,0.002,-0.063,0.0605,-0.062,-0.22,-0.343,-0.205,-0.125,-0.115,-0.0615,0.0965,-0.0215
0.358,-0.035,0.045,0.0795,-0.005,-0.057,0.062,-0.0595,-0.216,-0.3355,-0.199,-0.1175,-0.109,-0.0605,0.0905,-0.044
0.359,-0.037,0.0475,0.0845,-0.0055,-0.0605,0.0655,-0.059,-0.212,-0.3335,-0.1965,-0.1175,-0.1095,-0.0595,0.0905,-0.047
0.36,-0.0375,0.0685,0.106,-0.016,-0.0715,0.087,-0.0685,-0.22,-0.3425,-0.2065,-0.1285,-0.12,-0.061,0.112,-0.045
0.361,-0.0445,0.0375,0.0815,0.003,-0.0625,0.059,-0.059,-0.2115,-0.334,-0.1995,-0.1195,-0.1115,-0.063,0.095,-0.0315
0.362,-0.037,0.013,0.0505,0.012,-0.0435,0.031,-0.05,-0.203,-0.326,-0.189,-0.1095,-0.103,-0.0615,0.0735,-0.0315
0.363,-0.0495,0.0285,0.078,0.0105,-0.0635,0.0525,-0.0615,-0.213,-0.336,-0.2005,-0.121,-0.115,-0.0595,0.097,-0.0255
0.364,-0.0895,0.02,0.1095,0.035,-0.099,0.064,-0.064,-0.2135,-0.3365,-0.201,-0.1235,-0.118,-0.06,0.108,-0.016
0.365,-0.125,0.012,0.137,0.0565,-0.131,0.074,-0.053,-0.2035,-0.326,-0.189,-0.1105,-0.107,-0.06,0.1,-0.026
0.366,-0.1025,0.0115,0.114,0.045,-0.1075,0.062,-0.054,-0.2045,-0.3285,-0.1905,-0.112,-0.108,-0.06,0.094,-0.017
0.367,-0.0495,0.0135,0.063,0.018,-0.056,0.0375,-0.0665,-0.2155,-0.34,-0.2015,-0.1235,-0.1205,-0.0585,0.091,-0.0045
0.368,-0.0545,0.0085,0.0625,0.0225,-0.058,0.035,-0.061,-0.2085,-0.335,-0.1965,-0.118,-0.1145,-0.0545,0.0845,0.007
0.369,-0.0725,0.005,0.077,0.0335,-0.0745,0.0405,-0.059,-0.2065,-0.336,-0.195,-0.115,-0.113,-0.053,0.0875,0.011
0.37,-0.073,-0.003,0.0705,0.038,-0.0715,0.0335,-0.0645,-0.211,-0.34,-0.199,-0.12,-0.118,-0.0535,0.0895,0.0085
0.371,-0.051,0.0195,0.071,0.0155,-0.0605,0.0445,-0.059,-0.2045,-0.3325,-0.1915,-0.1125,-0.112,-0.0525,0.094,0.016
0.372,-0.053,0.0275,0.0805,0.012,-0.0665,0.0535,-0.056,-0.198,-0.3295,-0.1875,-0.1075,-0.1075,-0.0515,0.09,0.0195
0.373,-0.0645,0.0205,0.0845,0.0215,-0.074,0.052,-0.061,-0.2,-0.333,-0.1915,-0.112,-0.1115,-0.05,0.0905,0.0155
0.374,-0.047,0.0125,0.0595,0.017,-0.053,0.0355,-0.0625,-0.198,-0.33,-0.188,-0.111,-0.11,-0.0485,0.095,0.0165
0.375,-0.037,-0.003,0.034,0.0195,-0.0355,0.015,-0.0595,-0.191,-0.3245,-0.183,-0.1065,-0.1065,-0.048,0.0905,0.016
0.376,-0.0345,0.0185,0.0535,0.008,-0.044,0.0355,-0.0635,-0.1945,-0.327,-0.1885,-0.1105,-0.112,-0.048,0.1075,0.0085
0.377,-0.0395,0.021,0.0605,0.009,-0.0495,0.04,-0.0665,-0.1945,-0.3275,-0.1915,-0.115,-0.114,-0.048,0.115,0.007
0.378,-0.0335,0.018,0.0515,0.0075,-0.042,0.0345,-0.0735,-0.2005,-0.3345,-0.198,-0.1215,-0.122,-0.047,0.111,0.001
0.379,-0.041,0.0175,0.0585,0.0115,-0.0495,0.037,-0.0735,-0.2025,-0.3335,-0.198,-0.122,-0.1235,-0.0485,0.101,-0.015
0.38,-0.0415,0.0215,0.063,0.01,-0.052,0.042,-0.0695,-0.197,-0.327,-0.194,-0.1175,-0.1195,-0.0505,0.104,-0.022
0.381,-0.0285,0.0365,0.0655,-0.0045,-0.0465,0.0505,-0.0725,-0.198,-0.328,-0.1955,-0.1195,-0.123,-0.049,0.117,-0.0225
0.382,-0.044,0.0315,0.0755,0.006,-0.0595,0.053,-0.0655,-0.1885,-0.3185,-0.1865,-0.113,-0.1155,-0.048,0.11,-0.019
0.383,-0.0645,0.0135,0.0775,0.0255,-0.0705,0.045,-0.055,-0.1785,-0.309,-0.178,-0.103,-0.106,-0.0465,0.0965,-0.0125
0.384,-0.07,0.002,0.072,0.0335,-0.0705,0.0365,-0.049,-0.1745,-0.305,-0.1735,-0.0985,-0.101,-0.0455,0.088,-0.012
0.385,-0.0645,0.0025,0.0665,0.0305,-0.065,0.034,-0.046,-0.1705,-0.3005,-0.17,-0.0955,-0.0985,-0.045,0.094,-0.006
0.386,-0.0855,0.024,0.1095,0.0305,-0.097,0.0665,-0.0395,-0.162,-0.293,-0.1615,-0.0875,-0.094,-0.044,0.113,-0.001
0.387,-0.084,0.024,0.108,0.03,-0.0955,0.0655,-0.038,-0.161,-0.2915,-0.1595,-0.086,-0.0935,-0.0445,0.105,0.001
0.388,-0.03,0.0155,0.0455,0.007,-0.0375,0.03,-0.0465,-0.1665,-0.296,-0.164,-0.0915,-0.098,-0.041,0.0905,0.0035
0.389,0.0015,0.0325,0.031,-0.0175,-0.0145,0.0315,-0.049,-0.167,-0.2965,-0.162,-0.0905,-0.0965,-0.04,0.0975,0.001
0.39,-0.0065,0.03,0.0365,-0.012,-0.021,0.033,-0.0465,-0.167,-0.2945,-0.16,-0.088,-0.095,-0.0395,0.099,0.0015
0.391,-0.0315,0.028,0.0595,0.0015,-0.0455,0.0435,-0.0395,-0.1595,-0.289,-0.1545,-0.0825,-0.09,-0.038,0.104,-0.0035
0.392,-0.064,0.018,0.082,0.023,-0.073,0.0495,-0.04,-0.158,-0.288,-0.1555,-0.084,-0.0925,-0.0405,0.1145,-0.0085
0.393,-0.0725,0.0025,0.0745,0.0345,-0.073,0.038,-0.0435,-0.1585,-0.2905,-0.158,-0.0885,-0.0975,-0.044,0.108,-0.009
0.394,-0.0495,0.003,0.0525,0.023,-0.051,0.027,-0.046,-0.1595,-0.2925,-0.16,-0.091,-0.0995,-0.0435,0.0975,-0.0115
0.395,-0.035,-0.009,0.0265,0.0215,-0.0305,0.009,-0.049,-0.1605,-0.2925,-0.1605,-0.092,-0.102,-0.043,0.0905,-0.015
0.396,-0.027,-0.0005,0.0265,0.0135,-0.0265,0.013,-0.0605,-0.17,-0.3025,-0.1715,-0.103,-0.1145,-0.0445,0.092,-0.016
0.397,-0.0225,0.018,0.04,0.002,-0.031,0.0285,-0.0705,-0.182,-0.312,-0.1835,-0.1145,-0.1265,-0.043,0.1035,-0.018
0.398,-0.029,-0.013,0.016,0.0205,-0.022,0.0015,-0.055,-0.166,-0.298,-0.1705,-0.104,-0.1155,-0.043,0.086,-0.0175
0.399,-0.039,-0.0185,0.021,0.0285,-0.03,0.001,-0.053,-0.1615,-0.2965,-0.169,-0.1025,-0.116,-0.0425,0.0895,-0.0105
0.4,-0.0565,-0.003,0.0535,0.0295,-0.0545,0.025,-0.055,-0.1605,-0.296,-0.169,-0.102,-0.1175,-0.0405,0.105,-0.012
0.401,-0.08,-0.0005,0.0795,0.04,-0.0795,0.039,-0.043,-0.1475,-0.285,-0.158,-0.0925,-0.1065,-0.0415,0.099,-0.0205
0.402,-0.086,0.0055,0.091,0.04,-0.088,0.048,-0.0425,-0.1445,-0.2825,-0.156,-0.091,-0.1035,-0.041,0.1,-0.023
0.403,-0.078,-0.0025,0.0755,0.04,-0.0765,0.036,-0.0435,-0.1455,-0.283,-0.1585,-0.0925,-0.1075,-0.0435,0.089,-0.019
0.404,-0.0765,-0.0065,0.07,0.041,-0.073,0.0315,-0.041,-0.1445,-0.2805,-0.1585,-0.0915,-0.107,-0.045,0.0875,-0.025
0.405,-0.0745,-0.0065,0.068,0.0405,-0.071,0.0305,-0.039,-0.1425,-0.278,-0.156,-0.0905,-0.105,-0.043,0.087,-0.0275
0.406,-0.0825,-0.0025,0.08,0.0425,-0.081,0.0385,-0.0365,-0.1385,-0.275,-0.1515,-0.0885,-0.104,-0.0445,0.089,-0.0205
0.407,-0.093,0.0085,0.1015,0.042,-0.097,0.0545,-0.031,-0.1325,-0.269,-0.1465,-0.0835,-0.099,-0.0465,0.1015,-0.015
0.408,-0.0655,0.0045,0.0705,0.03,-0.0675,0.037,-0.037,-0.1345,-0.273,-0.152,-0.091,-0.106,-0.043,0.0945,-0.006
0.409,-0.045,-0.0055,0.0395,0.0245,-0.042,0.0165,-0.0385,-0.1325,-0.2705,-0.1505,-0.091,-0.107,-0.0405,0.0915,-0.007
0.41,-0.056,-0.0065,0.0495,0.031,-0.0525,0.021,-0.033,-0.125,-0.2615,-0.1435,-0.084,-0.099,-0.041,0.0925,-0.0125
0.411,-0.0425,-0.002,0.0405,0.022,-0.0415,0.019,-0.032,-0.123,-0.258,-0.141,-0.084,-0.0985,-0.039,0.0835,-0.014
0.412,-0.0305,0.011,0.041,0.0095,-0.0355,0.0255,-0.0305,-0.121,-0.2525,-0.139,-0.0825,-0.0975,-0.0395,0.083,-0.0145
0.413,-0.013,0.024,0.037,-0.006,-0.025,0.03,-0.0355,-0.1225,-0.255,-0.1395,-0.0835,-0.098,-0.037,0.087,-0.0135
0.414,0.0205,0.0355,0.015,-0.028,0.003,0.025,-0.038,-0.1255,-0.2575,-0.1435,-0.0875,-0.1035,-0.038,0.089,-0.015
0.415,0.0235,0.028,0.0045,-0.026,0.0095,0.016,-0.041,-0.127,-0.2595,-0.1515,-0.0955,-0.112,-0.0415,0.097,-0.018
0.416,-0.007,-0.005,0.002,0.0055,-0.0045,-0.0015,-0.0455,-0.13,-0.263,-0.158,-0.1055,-0.121,-0.04,0.1025,-0.021
0.417,-0.033,-0.0205,0.0125,0.0265,-0.0225,-0.004,-0.045,-0.128,-0.2625,-0.157,-0.1065,-0.1225,-0.0405,0.095,-0.0235
0.418,-0.0425,-0.0105,0.0315,0.0265,-0.0365,0.0105,-0.0445,-0.127,-0.259,-0.155,-0.106,-0.1215,-0.0395,0.097,-0.0305
0.419,-0.056,0.0125,0.0685,0.0215,-0.062,0.04,-0.0435,-0.1245,-0.2555,-0.1535,-0.1045,-0.1195,-0.035,0.1045,-0.035
0.42,-0.0355,0.0245,0.06,0.0055,-0.0475,0.0415,-0.028,-0.106,-0.24,-0.1385,-0.0905,-0.1055,-0.034,0.0905,-0.037
0.421,-0.015,0.0055,0.0205,0.0045,-0.0175,0.013,-0.0185,-0.1,-0.231,-0.1315,-0.085,-0.101,-0.0365,0.072,-0.035
0.422,-0.023,0.0145,0.037,0.004,-0.0295,0.025,-0.033,-0.113,-0.244,-0.145,-0.101,-0.116,-0.036,0.0905,-0.025
0.423,-0.025,0.0255,0.05,-0.0005,-0.037,0.037,-0.031,-0.106,-0.239,-0.1405,-0.0995,-0.1145,-0.036,0.0975,-0.022
0.424,-0.0235,0.0265,0.05,-0.002,-0.0365,0.038,-0.0225,-0.0955,-0.23,-0.131,-0.089,-0.107,-0.034,0.1,-0.019
0.425,-0.026,0.0295,0.055,-0.002,-0.04,0.042,-0.0285,-0.1,-0.234,-0.136,-0.094,-0.114,-0.0345,0.1125,-0.0215
0.426,-0.0305,0.0135,0.044,0.0085,-0.037,0.028,-0.0355,-0.1055,-0.2385,-0.1435,-0.101,-0.1225,-0.038,0.101,-0.026
0.427,-0.0095,-0.001,0.0085,0.005,-0.009,0.0035,-0.0375,-0.1055,-0.242,-0.146,-0.104,-0.127,-0.0385,0.086,-0.0185
0.428,0.0025,-0.0145,-0.017,0.0055,0.01,-0.0155,-0.0315,-0.095,-0.234,-0.1385,-0.0985,-0.121,-0.0385,0.076,-0.014
0.429,-0.0075,0.002,0.0095,0.0025,-0.0085,0.0055,-0.03,-0.091,-0.23,-0.135,-0.097,-0.12,-0.038,0.0895,-0.0145
0.43,-0.0165,0.0025,0.019,0.0065,-0.0175,0.011,-0.0245,-0.0855,-0.225,-0.13,-0.093,-0.116,-0.0375,0.0825,-0.0215
0.431,-0.0315,-0.0095,0.0215,0.02,-0.026,0.006,-0.0165,-0.075,-0.214,-0.122,-0.0845,-0.109,-0.037,0.0615,-0.0325
0.432,-0.039,0.001,0.04,0.0185,-0.0395,0.02,-0.013,-0.0765,-0.2105,-0.1195,-0.0845,-0.1125,-0.0395,0.0735,-0.0345
0.433,-0.0335,0.01,0.0435,0.0115,-0.038,0.026,-0.0125,-0.075,-0.2105,-0.1195,-0.0875,-0.1145,-0.0395,0.089,-0.0315
0.434,-0.029,0.0205,0.0495,0.004,-0.039,0.0345,-0.014,-0.0645,-0.207,-0.121,-0.0905,-0.118,-0.039,0.096,-0.031
0.435,-0.039,0.0135,0.0525,0.0125,-0.0455,0.0325,-0.014,-0.062,-0.202,-0.12,-0.089,-0.119,-0.0415,0.0985,-0.0325
0.436,-0.0495,0.0065,0.056,0.0215,-0.0525,0.0305,-0.014,-0.0615,-0.199,-0.119,-0.0885,-0.1195,-0.0415,0.0975,-0.029
0.437,-0.059,0.001,0.06,0.029,-0.0595,0.03,-0.0095,-0.052,-0.191,-0.113,-0.0845,-0.117,-0.0405,0.0925,-0.0225
0.438,-0.056,-0.007,0.0495,0.031,-0.0525,0.021,-0.0055,-0.045,-0.184,-0.108,-0.081,-0.1135,-0.041,0.0885,-0.0225
0.439,-0.0275,0.011,0.0385,0.008,-0.033,0.024,-0.014,-0.053,-0.1915,-0.1195,-0.093,-0.126,-0.0425,0.0965,-0.026
0.44,-0.016,0.0165,0.0325,-0.0005,-0.024,0.024,-0.016,-0.053,-0.193,-0.1225,-0.0965,-0.1295,-0.043,0.1015,-0.0265
0.441,-0.022,0.008,0.0295,0.0065,-0.0255,0.0185,-0.0065,-0.0415,-0.183,-0.114,-0.088,-0.123,-0.044,0.085,-0.028
0.442,-0.028,0.014,0.0415,0.0065,-0.0345,0.027,-0.006,-0.0365,-0.1815,-0.113,-0.0885,-0.123,-0.043,0.092,-0.033
0.443,-0.019,0.006,0.025,0.0065,-0.022,0.0155,-0.0105,-0.041,-0.1835,-0.1175,-0.093,-0.1285,-0.041,0.107,-0.035
0.444,-0.003,0.0095,0.0125,-0.0035,-0.0075,0.0105,-0.0125,-0.039,-0.1845,-0.1195,-0.098,-0.134,-0.041,0.0955,-0.0395
0.445,-0.0005,0.024,0.0245,-0.012,-0.0125,0.024,-0.01,-0.035,-0.181,-0.116,-0.0965,-0.13,-0.0385,0.0945,-0.0465
0.446,-0.001,0.016,0.0165,-0.0075,-0.0085,0.016,-0.007,-0.033,-0.177,-0.1125,-0.0925,-0.1275,-0.0385,0.093,-0.046
0.447,0.006,0.0295,0.0235,-0.018,-0.0085,0.026,-0.0125,-0.027,-0.1775,-0.1145,-0.098,-0.133,-0.0365,0.0965,-0.042
0.448,-0.017,0.035,0.0515,-0.009,-0.034,0.043,0.0005,-0.0195,-0.1655,-0.103,-0.0875,-0.123,-0.0365,0.0975,-0.0405
0.449,-0.0375,0.0135,0.051,0.012,-0.0435,0.0315,0.019,-0.001,-0.1495,-0.087,-0.071,-0.1075,-0.037,0.072,-0.041
0.45,0.0025,0.0145,0.012,-0.0085,-0.0045,0.013,0.008,0.0005,-0.1555,-0.0945,-0.079,-0.117,-0.0325,0.064,-0.0405
0.451,0.018,0.0185,0.0,-0.0185,0.009,0.0095,-0.0015,-0.01,-0.1635,-0.1035,-0.0905,-0.13,-0.033,0.078,-0.0395
0.452,0.0015,0.0105,0.009,-0.006,-0.0035,0.0095,0.003,-0.0085,-0.1595,-0.101,-0.0895,-0.129,-0.0335,0.0795,-0.042
0.453,-0.0015,0.013,0.0145,-0.006,-0.0075,0.013,0.0035,-0.0005,-0.155,-0.0995,-0.0885,-0.128,-0.0345,0.0795,-0.0455
0.454,0.0015,0.008,0.0065,-0.005,-0.0025,0.007,0.006,0.012,-0.1455,-0.095,-0.084,-0.126,-0.036,0.081,-0.0405
0.455,0.007,-0.017,-0.024,0.005,0.016,-0.0205,0.0145,0.02,-0.1345,-0.0885,-0.0785,-0.1205,-0.0345,0.0695,-0.0355
0.456,0.0065,-0.0075,-0.0135,0.0005,0.01,-0.0105,0.0105,0.0215,-0.133,-0.09,-0.0835,-0.1245,-0.0335,0.0815,-0.041
0.457,0.002,-0.0005,-0.0025,-0.001,0.0025,-0.0015,0.0075,0.022,-0.133,-0.0925,-0.0865,-0.1305,-0.0345,0.0945,-0.0445
0.458,-0.0035,-0.008,-0.0045,0.0055,0.001,-0.0065,0.0035,0.024,-0.1325,-0.094,-0.0895,-0.135,-0.0355,0.082,-0.048
0.459,0.0035,0.0025,-0.001,-0.0035,0.0025,0.001,0.007,0.0335,-0.1255,-0.0915,-0.089,-0.1335,-0.0355,0.0765,-0.052
0.46,0.0165,0.0105,-0.006,-0.014,0.0115,0.0025,0.014,0.0435,-0.118,-0.087,-0.0865,-0.132,-0.0355,0.0815,-0.0515
0.461,0.013,0.0105,-0.0025,-0.012,0.008,0.004,0.0205,0.0545,-0.106,-0.079,-0.08,-0.126,-0.035,0.073,-0.0485
0.462,-0.006,0.007,0.013,-0.0005,-0.0095,0.01,0.023,0.06,-0.101,-0.0765,-0.0795,-0.1255,-0.0345,0.065,-0.052
0.463,-0.011,-0.0005,0.011,0.0055,-0.0105,0.0055,0.0215,0.064,-0.0995,-0.078,-0.0815,-0.129,-0.0345,0.0675,-0.0555
0.464,0.002,-0.001,-0.0025,-0.0005,0.0025,-0.002,0.0165,0.061,-0.102,-0.0835,-0.088,-0.137,-0.0335,0.07,-0.054
0.465,-0.012,0.007,0.019,0.0025,-0.015,0.0125,0.0195,0.0655,-0.1005,-0.083,-0.0905,-0.14,-0.034,0.0735,-0.0545
0.466,0.0065,0.009,0.0025,-0.008,0.002,0.0055,0.0415,0.0935,-0.0765,-0.062,-0.0715,-0.1215,-0.0345,0.0565,-0.0555
0.467,0.024,0.013,-0.011,-0.0185,0.018,0.001,0.0365,0.093,-0.079,-0.0665,-0.077,-0.13,-0.0335,0.061,-0.056
0.468,0.0075,0.008,0.0005,-0.008,0.004,0.004,0.0295,0.09,-0.084,-0.0715,-0.085,-0.139,-0.032,0.068,-0.0565
0.469,0.0015,-0.011,-0.012,0.0045,0.007,-0.0115,0.044,0.108,-0.0675,-0.059,-0.0735,-0.128,-0.0295,0.059,-0.0575
0.47,-0.0155,-0.0075,0.0075,0.011,-0.011,0.0,0.059,0.126,-0.047,-0.0445,-0.06,-0.117,-0.028,0.0605,-0.0585
0.471,-0.0135,0.0115,0.025,0.001,-0.019,0.0175,0.0575,0.1285,-0.044,-0.0435,-0.062,-0.1185,-0.028,0.06,-0.0565
0.472,0.0005,0.0105,0.01,-0.0055,-0.0045,0.01,0.0505,0.125,-0.046,-0.049,-0.0685,-0.127,-0.028,0.059,-0.057
0.473,0.021,0.0115,-0.0095,-0.0165,0.0155,0.001,0.047,0.128,-0.0465,-0.0535,-0.0735,-0.1335,-0.028,0.0535,-0.0645
0.474,-0.005,-0.0205,-0.0155,0.0125,0.0055,-0.018,0.046,0.1325,-0.049,-0.057,-0.079,-0.1405,-0.03,0.037,-0.069
0.475,-0.0465,-0.0565,-0.01,0.0515,-0.018,-0.033,0.0495,0.136,-0.044,-0.055,-0.0775,-0.1415,-0.03,0.028,-0.0725
0.476,-0.054,-0.0655,-0.0115,0.0595,-0.021,-0.039,0.0405,0.131,-0.0485,-0.0645,-0.0865,-0.152,-0.0285,0.0405,-0.071
0.477,-0.0245,-0.055,-0.0305,0.0395,0.003,-0.0425,0.0345,0.13,-0.051,-0.0695,-0.093,-0.1605,-0.029,0.0595,-0.065
0.478,0.037,-0.021,-0.0575,-0.008,0.0475,-0.0395,0.0285,0.132,-0.0505,-0.0725,-0.0985,-0.166,-0.0285,0.0615,-0.0695
0.479,0.042,-0.013,-0.055,-0.015,0.0485,-0.034,0.035,0.143,-0.0415,-0.0665,-0.095,-0.1645,-0.029,0.048,-0.075
0.48,0.0445,-0.0065,-0.0515,-0.019,0.048,-0.029,0.044,0.159,-0.029,-0.0555,-0.0875,-0.158,-0.029,0.047,-0.077
0.481,0.058,-0.002,-0.06,-0.028,0.0595,-0.031,0.045,0.1665,-0.0235,-0.053,-0.0885,-0.1585,-0.029,0.056,-0.0785
0.482,0.056,-0.0065,-0.0625,-0.025,0.0595,-0.0345,0.046,0.1735,-0.021,-0.053,-0.089,-0.161,-0.0295,0.0555,-0.085
0.483,0.0265,-0.011,-0.037,-0.008,0.032,-0.024,0.055,0.1905,-0.005,-0.0415,-0.0805,-0.153,-0.031,0.046,-0.089
0.484,-0.013,-0.02,-0.007,0.016,-0.0025,-0.0135,0.0695,0.208,0.0115,-0.028,-0.0705,-0.1425,-0.0325,0.039,-0.0855
0.485,-0.025,-0.0045,0.0205,0.0145,-0.0225,0.0075,0.071,0.2145,0.015,-0.027,-0.071,-0.144,-0.0315,0.049,-0.0825
0.486,-0.0395,-0.011,0.0285,0.025,-0.034,0.0085,0.0785,0.224,0.0225,-0.0215,-0.067,-0.14,-0.031,0.043,-0.0835
0.487,-0.0035,-0.0295,-0.026,0.0165,0.0115,-0.028,0.0715,0.2195,0.016,-0.029,-0.0755,-0.1495,-0.0295,0.024,-0.0835
0.488,0.0235,-0.019,-0.042,-0.0025,0.033,-0.0305,0.0635,0.2155,0.008,-0.0375,-0.0845,-0.1595,-0.027,0.027,-0.091
0.489,0.039,-0.015,-0.0535,-0.0125,0.0465,-0.034,0.062,0.2185,0.0085,-0.038,-0.087,-0.163,-0.026,0.0365,-0.1005
0.49,0.0605,-0.0175,-0.0785,-0.022,0.07,-0.048,0.055,0.2125,0.002,-0.0465,-0.097,-0.174,-0.0265,0.033,-0.1005
0.491,0.056,-0.0165,-0.073,-0.02,0.065,-0.045,0.06,0.2235,0.009,-0.0415,-0.092,-0.169,-0.025,0.0325,-0.104
0.492,0.0585,-0.0035,-0.062,-0.028,0.061,-0.033,0.0675,0.2385,0.023,-0.0305,-0.084,-0.161,-0.025,0.0395,-0.1045
0.493,0.051,-0.007,-0.0575,-0.022,0.0545,-0.032,0.0765,0.2495,0.0315,-0.025,-0.0785,-0.157,-0.0245,0.027,-0.096
0.494,0.05,-0.0135,-0.063,-0.0185,0.0565,-0.038,0.0795,0.258,0.0355,-0.0245,-0.0785,-0.1575,-0.025,0.027,-0.0905
0.495,0.0465,-0.0095,-0.056,-0.0185,0.051,-0.0325,0.084,0.265,0.04,-0.023,-0.0785,-0.16,-0.027,0.041,-0.0905
0.496,0.0465,-0.002,-0.049,-0.0225,0.048,-0.0255,0.083,0.268,0.0425,-0.0235,-0.0815,-0.1615,-0.0265,0.051,-0.09
0.497,0.049,0.0095,-0.0395,-0.0295,0.0445,-0.015,0.0785,0.2675,0.0405,-0.029,-0.088,-0.1685,-0.027,0.056,-0.089
0.498,0.047,-0.002,-0.049,-0.023,0.0485,-0.0255,0.083,0.272,0.046,-0.0275,-0.0875,-0.169,-0.0285,0.052,-0.091
0.499,0.0495,-0.0065,-0.056,-0.022,0.0535,-0.0315,0.0875,0.28,0.0535,-0.024,-0.084,-0.1675,-0.0295,0.055,-0.09
0.5,0.0405,-0.0025,-0.043,-0.0195,0.042,-0.0225,0.094,0.2895,0.0615,-0.023,-0.084,-0.1675,-0.0315,0.0505,-0.0935
0.501,0.0285,-0.0065,-0.035,-0.0115,0.032,-0.0205,0.0995,0.2975,0.069,-0.0195,-0.0845,-0.168,-0.0345,0.046,-0.102
0.502,0.026,-0.0085,-0.034,-0.009,0.0305,-0.0215,0.103,0.306,0.0755,-0.016,-0.083,-0.1685,-0.035,0.0345,-0.105
0.503,0.038,-0.005,-0.043,-0.017,0.041,-0.024,0.1015,0.3085,0.078,-0.0155,-0.0855,-0.1715,-0.0345,0.031,-0.1195
0.504,0.038,0.0055,-0.032,-0.022,0.0355,-0.0135,0.101,0.311,0.0795,-0.016,-0.0875,-0.1755,-0.0345,0.0515,-0.1195
0.505,0.049,-0.012,-0.061,-0.0185,0.055,-0.0365,0.107,0.32,0.0845,-0.014,-0.088,-0.1765,-0.0345,0.0355,-0.105
0.506,0.0775,-0.0315,-0.1085,-0.023,0.0935,-0.07,0.109,0.322,0.0845,-0.0155,-0.0925,-0.181,-0.0355,0.018,-0.111
0.507,0.0785,-0.013,-0.092,-0.033,0.0855,-0.0525,0.1115,0.331,0.09,-0.013,-0.09,-0.1785,-0.0345,0.028,-0.12
0.508,0.0655,-0.001,-0.0665,-0.0325,0.066,-0.0335,0.1205,0.344,0.0985,-0.0065,-0.0855,-0.174,-0.036,0.0255,-0.129
0.509,0.0495,-0.0085,-0.058,-0.021,0.0545,-0.033,0.1215,0.3455,0.097,-0.0095,-0.0895,-0.1795,-0.04,0.019,-0.142
0.51,0.0335,-0.018,-0.0515,-0.008,0.0425,-0.0345,0.1245,0.3525,0.1035,-0.0055,-0.089,-0.1795,-0.0385,0.0125,-0.1505
0.511,0.0235,-0.021,-0.0445,-0.0015,0.0345,-0.0325,0.1295,0.3595,0.112,0.001,-0.0845,-0.1765,-0.0355,0.0055,-0.1505
0.512,0.013,-0.0225,-0.036,0.0045,0.0245,-0.029,0.137,0.3715,0.122,0.0055,-0.079,-0.1725,-0.036,0.0125,-0.1425
0.513,0.025,-0.0185,-0.0435,-0.0035,0.0345,-0.031,0.1395,0.3785,0.125,0.005,-0.08,-0.17,-0.033,0.018,-0.129
0.514,0.066,-0.0175,-0.0835,-0.0245,0.075,-0.0505,0.127,0.369,0.1135,-0.009,-0.0955,-0.188,-0.0355,0.018,-0.124
0.515,0.074,-0.0215,-0.0955,-0.0265,0.085,-0.0585,0.1225,0.368,0.112,-0.0155,-0.105,-0.2,-0.039,0.0315,-0.124
0.516,0.0525,-0.026,-0.0785,-0.0135,0.066,-0.0525,0.131,0.377,0.121,-0.01,-0.1015,-0.1975,-0.041,0.0285,-0.1185
0.517,0.0455,-0.016,-0.0615,-0.015,0.054,-0.039,0.137,0.3865,0.1285,-0.005,-0.0985,-0.1975,-0.0425,0.036,-0.1125
0.518,0.0445,-0.008,-0.0525,-0.0185,0.0485,-0.0305,0.1405,0.393,0.136,-0.002,-0.0975,-0.1955,-0.041,0.0385,-0.109
0.519,0.046,-0.0125,-0.0585,-0.017,0.0525,-0.0355,0.146,0.4015,0.1425,0.003,-0.0935,-0.192,-0.043,0.0235,-0.113
0.52,0.0505,0.005,-0.045,-0.028,0.048,-0.02,0.152,0.409,0.149,0.008,-0.0885,-0.188,-0.0445,0.037,-0.116
0.521,0.0705,-0.0025,-0.073,-0.0345,0.072,-0.0375,0.1525,0.4125,0.1515,0.0065,-0.091,-0.192,-0.045,0.037,-0.117
0.522,0.07,0.001,-0.069,-0.036,0.07,-0.034,0.1455,0.412,0.146,-0.001,-0.102,-0.2025,-0.0455,0.0435,-0.122
0.523,0.0505,0.006,-0.0445,-0.0285,0.0475,-0.019,0.1445,0.41,0.1455,-0.004,-0.1065,-0.2055,-0.044,0.0515,-0.122
0.524,0.021,-0.035,-0.0555,0.007,0.0385,-0.045,0.162,0.4305,0.1655,0.0135,-0.0905,-0.192,-0.045,0.037,-0.12
0.525,-0.004,-0.037,-0.033,0.0205,0.0145,-0.035,0.172,0.445,0.174,0.0215,-0.085,-0.19,-0.049,0.0415,-0.127
0.526,0.0475,-0.018,-0.0655,-0.015,0.057,-0.042,0.155,0.4295,0.156,0.001,-0.1065,-0.211,-0.0495,0.032,-0.138
0.527,0.0805,-0.012,-0.093,-0.0345,0.087,-0.0525,0.151,0.429,0.154,-0.003,-0.1125,-0.217,-0.0495,0.027,-0.1415
0.528,0.0635,-0.0185,-0.082,-0.0225,0.073,-0.0505,0.1645,0.446,0.1685,0.0085,-0.102,-0.2095,-0.05,0.03,-0.1435
0.529,0.054,-0.0265,-0.08,-0.014,0.067,-0.0535,0.175,0.4575,0.1795,0.015,-0.097,-0.206,-0.05,0.0125,-0.146
0.53,0.0375,-0.0285,-0.066,-0.005,0.052,-0.047,0.1795,0.465,0.185,0.019,-0.0985,-0.2065,-0.05,0.009,-0.1525
0.531,0.046,-0.023,-0.069,-0.0115,0.058,-0.046,0.1815,0.471,0.189,0.02,-0.0995,-0.2085,-0.0485,0.009,-0.1555
0.532,0.0545,-0.03,-0.0845,-0.0125,0.0695,-0.0575,0.182,0.4745,0.1905,0.019,-0.101,-0.2135,-0.048,0.001,-0.15
0.533,0.054,-0.038,-0.0915,-0.0085,0.073,-0.0645,0.181,0.479,0.1945,0.0195,-0.1035,-0.217,-0.047,0.01,-0.1495
0.534,0.078,-0.012,-0.09,-0.0335,0.084,-0.051,0.194,0.493,0.2105,0.0305,-0.0945,-0.208,-0.047,0.013,-0.1525
0.535,0.086,-0.004,-0.09,-0.0415,0.0885,-0.047,0.202,0.501,0.219,0.0365,-0.0895,-0.205,-0.0475,0.009,-0.158
0.536,0.0815,-0.005,-0.0865,-0.0385,0.084,-0.046,0.201,0.5025,0.2195,0.034,-0.093,-0.208,-0.0455,0.0235,-0.1665
0.537,0.0755,-0.005,-0.08,-0.0355,0.078,-0.0425,0.2015,0.5035,0.221,0.0345,-0.094,-0.2095,-0.0415,0.0235,-0.181
0.538,0.061,-0.015,-0.0765,-0.023,0.069,-0.046,0.1975,0.4995,0.22,0.03,-0.099,-0.2155,-0.0415,0.021,-0.1945
0.539,0.05,-0.0205,-0.071,-0.015,0.0605,-0.0455,0.195,0.501,0.2215,0.0285,-0.1015,-0.2185,-0.0435,0.0155,-0.2075
0.54,0.052,-0.0145,-0.066,-0.019,0.059,-0.0405,0.1985,0.5035,0.2255,0.0315,-0.0995,-0.2165,-0.044,0.003,-0.211
0.541,0.056,-0.0165,-0.0725,-0.02,0.0645,-0.0445,0.2025,0.5045,0.226,0.0315,-0.101,-0.218,-0.0455,0.008,-0.191
0.542,0.0505,-0.025,-0.076,-0.013,0.0635,-0.0505,0.2095,0.5115,0.232,0.0395,-0.0945,-0.2125,-0.046,0.0055,-0.1755
0.543,0.07,-0.0105,-0.0805,-0.03,0.0755,-0.0455,0.218,0.5185,0.2385,0.046,-0.087,-0.2045,-0.0485,0.0025,-0.1655
0.544,0.0915,0.0095,-0.082,-0.051,0.087,-0.036,0.215,0.5145,0.233,0.0415,-0.0925,-0.2095,-0.049,0.0185,-0.159
0.545,0.0715,-0.004,-0.0755,-0.034,0.0735,-0.04,0.2085,0.505,0.2265,0.037,-0.0975,-0.215,-0.046,0.0255,-0.1595
0.546,0.0415,-0.0355,-0.077,-0.0035,0.0595,-0.056,0.205,0.4985,0.221,0.033,-0.1025,-0.2205,-0.048,0.017,-0.167
0.547,0.049,-0.0345,-0.083,-0.0075,0.0665,-0.059,0.211,0.502,0.2265,0.038,-0.0955,-0.2135,-0.048,0.0155,-0.179
0.548,0.0515,-0.035,-0.086,-0.0085,0.069,-0.0605,0.2175,0.5045,0.229,0.0445,-0.089,-0.2065,-0.045,0.015,-0.178
0.549,0.0465,-0.0315,-0.078,-0.008,0.0625,-0.055,0.2225,0.505,0.232,0.0485,-0.085,-0.2035,-0.0475,0.006,-0.1795
0.55,0.079,0.005,-0.074,-0.0425,0.077,-0.0345,0.229,0.508,0.237,0.0545,-0.077,-0.1965,-0.047,0.0135,-0.1835
0.551,0.07,0.005,-0.0655,-0.0375,0.068,-0.0305,0.224,0.5025,0.231,0.0525,-0.079,-0.1975,-0.046,0.0165,-0.183
0.552,0.0355,-0.016,-0.051,-0.01,0.0435,-0.0335,0.2235,0.499,0.2315,0.053,-0.0755,-0.195,-0.047,0.0065,-0.1855
0.553,0.041,-0.0115,-0.0525,-0.015,0.047,-0.032,0.2205,0.4925,0.226,0.051,-0.078,-0.1955,-0.046,0.0095,-0.1875
0.554,0.0425,-0.012,-0.0545,-0.0155,0.0485,-0.0335,0.215,0.482,0.2155,0.045,-0.083,-0.1995,-0.048,0.0095,-0.1845
0.555,0.045,-0.0145,-0.059,-0.0155,0.0525,-0.0365,0.2135,0.4735,0.21,0.0415,-0.084,-0.2015,-0.049,0.02,-0.181
0.556,0.0215,-0.02,-0.0415,-0.001,0.0315,-0.0305,0.2225,0.4795,0.2205,0.052,-0.073,-0.189,-0.047,0.031,-0.1755
0.557,-0.0155,-0.024,-0.0085,0.0195,-0.003,-0.016,0.233,0.48,0.2245,0.0565,-0.065,-0.182,-0.049,0.0395,-0.1595
0.558,-0.0255,-0.019,0.0065,0.022,-0.016,-0.0065,0.2325,0.4695,0.217,0.052,-0.069,-0.185,-0.052,0.042,-0.1545
0.559,-0.039,-0.0165,0.0225,0.0275,-0.0305,0.003,0.2335,0.4665,0.2155,0.054,-0.0635,-0.1815,-0.053,0.0295,-0.1585
0.56,-0.023,-0.017,0.006,0.02,-0.0145,-0.0055,0.223,0.4505,0.204,0.0435,-0.0715,-0.1895,-0.0535,0.0255,-0.1615
0.561,0.015,-0.019,-0.034,0.002,0.0245,-0.0265,0.206,0.4275,0.1845,0.028,-0.0855,-0.2015,-0.0545,0.029,-0.1655
0.562,0.047,-0.024,-0.071,-0.0115,0.0595,-0.0475,0.193,0.4005,0.165,0.0155,-0.0955,-0.2125,-0.0545,0.018,-0.17
0.563,0.062,-0.04,-0.102,-0.0115,0.082,-0.071,0.1895,0.392,0.158,0.0125,-0.0965,-0.213,-0.0535,-0.0005,-0.1755
0.564,0.057,-0.016,-0.073,-0.021,0.0655,-0.0445,0.183,0.39,0.151,0.0095,-0.0975,-0.213,-0.05,0.02,-0.1745
0.565,0.0365,0.003,-0.0335,-0.02,0.0355,-0.0155,0.181,0.3795,0.1435,0.007,-0.0965,-0.2125,-0.05,0.0305,-0.1685
0.566,0.03,-0.013,-0.043,-0.009,0.037,-0.028,0.1895,0.378,0.145,0.0125,-0.087,-0.201,-0.0515,0.0245,-0.1605
0.567,0.0225,-0.012,-0.0345,-0.0055,0.0285,-0.023,0.193,0.3735,0.146,0.019,-0.0785,-0.19,-0.049,0.0315,-0.1515
0.568,-0.006,-0.018,-0.012,0.012,0.003,-0.015,0.1985,0.3705,0.1465,0.0265,-0.0665,-0.1785,-0.0495,0.0325,-0.146
0.569,0.001,-0.009,-0.0105,0.004,0.006,-0.0095,0.1985,0.364,0.1435,0.029,-0.0615,-0.172,-0.048,0.044,-0.1445
0.57,0.0225,0.004,-0.0185,-0.0135,0.021,-0.0075,0.193,0.351,0.135,0.0265,-0.061,-0.17,-0.0475,0.0385,-0.144
0.571,0.058,0.004,-0.054,-0.0315,0.0565,-0.025,0.177,0.3315,0.118,0.0125,-0.07,-0.1785,-0.0455,0.0375,-0.1395
0.572,0.0745,-0.0015,-0.0755,-0.037,0.075,-0.0385,0.1635,0.314,0.1025,0.0015,-0.0795,-0.1865,-0.046,0.04,-0.134
0.573,0.054,-0.0015,-0.0555,-0.0265,0.055,-0.0285,0.1615,0.3015,0.092,-0.004,-0.0805,-0.1885,-0.05,0.0395,-0.1285
0.574,0.038,-0.007,-0.0445,-0.016,0.0415,-0.0255,0.159,0.29,0.0845,-0.0065,-0.0795,-0.1865,-0.051,0.0425,-0.127
0.575,0.0285,-0.019,-0.0475,-0.005,0.0385,-0.0335,0.1545,0.275,0.076,-0.0095,-0.08,-0.1835,-0.0525,0.034,-0.131
0.576,0.0325,-0.003,-0.0355,-0.015,0.0345,-0.0195,0.144,0.261,0.0655,-0.0155,-0.082,-0.1865,-0.05,0.0475,-0.1345
0.577,0.018,-0.0015,-0.0195,-0.0085,0.019,-0.0105,0.1435,0.251,0.0615,-0.0165,-0.078,-0.182,-0.049,0.0525,-0.1305
0.578,0.005,-0.008,-0.013,0.001,0.0095,-0.0105,0.1415,0.2365,0.054,-0.021,-0.078,-0.1815,-0.052,0.0495,-0.1205
0.579,0.0,-0.0115,-0.011,0.0055,0.0055,-0.011,0.1375,0.235,0.046,-0.0225,-0.078,-0.1805,-0.0525,0.0515,-0.1235
0.58,-0.0085,-0.0095,-0.001,0.009,-0.0035,-0.0055,0.137,0.2265,0.038,-0.0235,-0.0765,-0.1775,-0.0525,0.052,-0.1335
0.581,0.0035,0.002,-0.0015,-0.003,0.0025,0.0005,0.128,0.2085,0.0245,-0.031,-0.0805,-0.181,-0.051,0.058,-0.137
0.582,0.019,-0.0005,-0.0195,-0.0095,0.0195,-0.01,0.1225,0.1955,0.0135,-0.035,-0.0825,-0.1785,-0.0495,0.0485,-0.143
0.583,0.017,-0.0085,-0.0255,-0.005,0.0215,-0.017,0.1195,0.1845,0.008,-0.0355,-0.0775,-0.1755,-0.048,0.036,-0.146
0.584,0.01,-0.005,-0.0145,-0.0025,0.0125,-0.0095,0.1185,0.18,0.006,-0.0335,-0.0735,-0.172,-0.0475,0.033,-0.146
0.585,0.0105,0.0165,0.0065,-0.0135,0.002,0.011,0.113,0.168,-0.0015,-0.036,-0.075,-0.172,-0.0445,0.0435,-0.1395
0.586,0.004,0.018,0.014,-0.011,-0.0045,0.0155,0.1115,0.1625,-0.0055,-0.0325,-0.0705,-0.165,-0.0405,0.0545,-0.124
0.587,-0.005,0.006,0.011,-0.001,-0.0075,0.0085,0.1185,0.1645,0.0,-0.026,-0.06,-0.153,-0.0375,0.051,-0.1155
0.588,-0.017,0.0085,0.025,0.004,-0.0205,0.0165,0.1225,0.162,0.0,-0.023,-0.053,-0.145,-0.0365,0.0525,-0.11
0.589,-0.038,0.018,0.056,0.0095,-0.0465,0.0365,0.122,0.1585,-0.003,-0.0205,-0.047,-0.139,-0.036,0.063,-0.1045
0.59,-0.0295,0.0165,0.0455,0.0065,-0.0375,0.0305,0.111,0.144,-0.014,-0.028,-0.0515,-0.143,-0.0335,0.066,-0.1035
0.591,0.007,0.016,0.009,-0.0115,-0.001,0.012,0.097,0.124,-0.033,-0.041,-0.0645,-0.1545,-0.033,0.0695,-0.1015
0.592,0.0155,0.0215,0.006,-0.019,0.005,0.0135,0.088,0.111,-0.0445,-0.0485,-0.069,-0.16,-0.0355,0.0665,-0.1005
0.593,0.0025,0.03,0.027,-0.0165,-0.012,0.028,0.0895,0.1065,-0.047,-0.047,-0.064,-0.155,-0.038,0.068,-0.101
0.594,0.0295,0.0405,0.011,-0.0355,0.0095,0.0255,0.0855,0.0975,-0.0535,-0.0495,-0.064,-0.154,-0.037,0.0685,-0.1015
0.595,0.0505,0.0305,-0.02,-0.041,0.0355,0.005,0.0715,0.0805,-0.0685,-0.062,-0.0755,-0.164,-0.038,0.073,-0.098
0.596,0.0265,0.035,0.0085,-0.031,0.0095,0.0215,0.0695,0.0735,-0.0735,-0.064,-0.0735,-0.162,-0.039,0.0885,-0.107
0.597,0.0055,0.026,0.02,-0.016,-0.007,0.0225,0.079,0.079,-0.0645,-0.0525,-0.0585,-0.147,-0.039,0.076,-0.1175
0.598,-0.018,0.01,0.0275,0.0035,-0.0225,0.0185,0.0825,0.0775,-0.0655,-0.0505,-0.056,-0.142,-0.0395,0.074,-0.1155
0.599,-0.041,0.007,0.048,0.017,-0.0445,0.027,0.0755,0.068,-0.075,-0.058,-0.0595,-0.144,-0.0385,0.0785,-0.114
0.6,-0.0345,-0.0025,0.032,0.018,-0.033,0.0145,0.0675,0.0595,-0.084,-0.0625,-0.063,-0.1465,-0.038,0.0695,-0.111
0.601,-0.0235,0.004,0.0275,0.0095,-0.025,0.015,0.063,0.0515,-0.0885,-0.065,-0.064,-0.147,-0.0365,0.075,-0.108
0.602,-0.0245,0.0145,0.039,0.005,-0.0315,0.026,0.06,0.049,-0.0905,-0.065,-0.0605,-0.1425,-0.034,0.08,-0.11
0.603,-0.0225,0.016,0.0385,0.003,-0.0305,0.027,0.0575,0.046,-0.092,-0.0635,-0.0575,-0.1385,-0.033,0.067,-0.1145
0.604,-0.026,0.0165,0.0425,0.004,-0.034,0.029,0.055,0.0415,-0.095,-0.067,-0.0595,-0.14,-0.034,0.062,-0.1175
0.605,-0.0205,0.0305,0.051,-0.005,-0.0355,0.0405,0.051,0.0365,-0.099,-0.0665,-0.058,-0.1375,-0.033,0.0735,-0.1175
0.606,-0.0115,0.0335,0.045,-0.011,-0.028,0.0385,0.049,0.0315,-0.102,-0.0645,-0.054,-0.135,-0.031,0.0725,-0.105
0.607,-0.0065,0.0285,0.035,-0.011,-0.0205,0.0315,0.0485,0.0285,-0.105,-0.0695,-0.054,-0.1315,-0.031,0.0675,-0.102
0.608,0.0,0.0205,0.02,-0.0105,-0.01,0.02,0.043,0.0195,-0.1115,-0.073,-0.058,-0.1335,-0.031,0.0645,-0.108
0.609,0.0,0.009,0.009,-0.0045,-0.0045,0.009,0.0395,0.0135,-0.119,-0.079,-0.0615,-0.136,-0.028,0.0515,-0.105
0.61,-0.0175,0.0125,0.03,0.002,-0.023,0.0205,0.042,0.016,-0.1165,-0.075,-0.056,-0.1275,-0.0265,0.053,-0.1
0.611,-0.033,0.0165,0.049,0.008,-0.041,0.032,0.0445,0.018,-0.111,-0.069,-0.049,-0.1215,-0.0255,0.0555,-0.102
0.612,-0.0285,0.016,0.044,0.006,-0.036,0.0295,0.0415,0.0155,-0.1135,-0.0715,-0.0485,-0.121,-0.0225,0.0495,-0.106
0.613,-0.0235,0.0175,0.0405,0.0025,-0.0315,0.0285,0.037,0.01,-0.119,-0.073,-0.0515,-0.122,-0.0225,0.0565,-0.1035
0.614,-0.0265,0.0215,0.048,0.0025,-0.037,0.0345,0.038,0.0065,-0.122,-0.075,-0.051,-0.123,-0.0255,0.0645,-0.1035
0.615,-0.03,0.0245,0.0545,0.0025,-0.042,0.0385,0.0335,0.0,-0.127,-0.0805,-0.053,-0.123,-0.0245,0.0745,-0.0975
0.616,-0.0175,0.031,0.049,-0.007,-0.033,0.0395,0.0245,-0.0065,-0.133,-0.084,-0.057,-0.125,-0.0215,0.0865,-0.0965
0.617,-0.0125,0.0295,0.042,-0.0085,-0.027,0.0355,0.0205,-0.011,-0.1355,-0.0855,-0.058,-0.1275,-0.024,0.0885,-0.098
0.618,-0.022,0.0295,0.0515,-0.0045,-0.0365,0.0405,0.0245,-0.0105,-0.132,-0.084,-0.0525,-0.1235,-0.026,0.0885,-0.0925
0.619,-0.0255,0.038,0.0635,-0.007,-0.044,0.05,0.025,-0.0105,-0.132,-0.0835,-0.05,-0.1215,-0.0255,0.0975,-0.0825
0.62,-0.022,0.0325,0.0545,-0.0055,-0.038,0.043,0.0235,-0.0155,-0.1355,-0.085,-0.0515,-0.1205,-0.026,0.105,-0.0725
0.621,-0.019,0.0315,0.0505,-0.0065,-0.0345,0.0405,0.0205,-0.019,-0.139,-0.087,-0.052,-0.1215,-0.0265,0.1005,-0.0705
0.622,-0.0215,0.0365,0.058,-0.0075,-0.0395,0.0465,0.0135,-0.0255,-0.148,-0.0915,-0.0575,-0.127,-0.0255,0.105,-0.0665
0.623,-0.0245,0.0355,0.06,-0.0055,-0.042,0.0475,0.014,-0.026,-0.148,-0.09,-0.0545,-0.125,-0.025,0.108,-0.069
0.624,-0.033,0.037,0.07,-0.002,-0.0515,0.053,0.0195,-0.02,-0.143,-0.084,-0.047,-0.119,-0.026,0.107,-0.07
0.625,-0.049,0.043,0.092,0.003,-0.07,0.067,0.023,-0.0175,-0.141,-0.0805,-0.044,-0.114,-0.0255,0.11,-0.064
0.626,-0.0635,0.04,0.1035,0.0115,-0.0835,0.0715,0.0245,-0.016,-0.1385,-0.0775,-0.0385,-0.11,-0.025,0.103,-0.0655
0.627,-0.0505,0.0375,0.088,0.0065,-0.069,0.062,0.0235,-0.017,-0.14,-0.0765,-0.0375,-0.1095,-0.024,0.1005,-0.067
0.628,-0.0335,0.0325,0.066,0.0,-0.0495,0.049,0.0205,-0.021,-0.143,-0.0795,-0.04,-0.111,-0.0245,0.0915,-0.0705
0.629,-0.0195,0.0315,0.0515,-0.0065,-0.0355,0.041,0.0155,-0.027,-0.1475,-0.0815,-0.0425,-0.114,-0.022,0.0945,-0.079
0.63,-0.027,0.0425,0.0695,-0.0075,-0.048,0.0555,0.021,-0.019,-0.1425,-0.0745,-0.035,-0.106,-0.017,0.111,-0.0835
0.631,-0.0755,0.0415,0.117,0.0165,-0.096,0.079,0.0335,-0.003,-0.128,-0.0575,-0.0195,-0.0895,-0.017,0.1075,-0.086
0.632,-0.093,0.0365,0.13,0.028,-0.111,0.0825,0.036,-0.005,-0.1275,-0.056,-0.017,-0.0865,-0.0175,0.101,-0.091
0.633,-0.074,0.0425,0.1165,0.0155,-0.095,0.079,0.0305,-0.012,-0.135,-0.0645,-0.0255,-0.0945,-0.0185,0.104,-0.0975
0.634,-0.029,0.0405,0.0695,-0.006,-0.049,0.0545,0.014,-0.0305,-0.1545,-0.083,-0.0425,-0.1105,-0.0195,0.103,-0.098
0.635,0.0175,0.0345,0.017,-0.0265,0.0005,0.0255,-0.004,-0.0495,-0.17,-0.1005,-0.058,-0.1265,-0.02,0.0905,-0.1
0.636,-0.0025,0.038,0.0405,-0.018,-0.021,0.039,0.0025,-0.042,-0.1605,-0.09,-0.048,-0.1145,-0.017,0.0925,-0.0935
0.637,-0.058,0.0355,0.094,0.011,-0.0755,0.0645,0.019,-0.025,-0.146,-0.074,-0.028,-0.0935,-0.014,0.1055,-0.0835
0.638,-0.0675,0.0485,0.116,0.0095,-0.0915,0.0815,0.022,-0.0235,-0.1415,-0.0705,-0.0265,-0.0925,-0.019,0.1065,-0.0935
0.639,-0.0365,0.0375,0.0745,-0.0005,-0.0555,0.0555,0.001,-0.0455,-0.162,-0.091,-0.048,-0.1155,-0.0205,0.0975,-0.092
0.64,-0.0085,0.035,0.0435,-0.0135,-0.0255,0.039,-0.0065,-0.052,-0.1695,-0.099,-0.0565,-0.125,-0.0205,0.0875,-0.08
0.641,-0.013,0.052,0.0645,-0.0195,-0.0385,0.0575,0.008,-0.04,-0.1545,-0.084,-0.0435,-0.1105,-0.021,0.089,-0.0795
0.642,-0.0485,0.044,0.092,0.002,-0.07,0.0675,0.017,-0.03,-0.1455,-0.0745,-0.034,-0.0995,-0.0185,0.0855,-0.087
0.643,-0.0485,0.0605,0.109,-0.0065,-0.0785,0.0845,0.027,-0.02,-0.135,-0.066,-0.0245,-0.0915,-0.02,0.0835,-0.0915
0.644,-0.042,0.0615,0.1035,-0.01,-0.0725,0.082,0.0195,-0.0285,-0.143,-0.0745,-0.03,-0.099,-0.02,0.092,-0.0825
0.645,-0.023,0.0615,0.0845,-0.0195,-0.0535,0.0725,0.0145,-0.0355,-0.149,-0.0795,-0.036,-0.1035,-0.019,0.1035,-0.073
0.646,0.002,0.0715,0.0695,-0.037,-0.0335,0.07,0.018,-0.0275,-0.146,-0.0755,-0.033,-0.1015,-0.0205,0.1095,-0.0705
0.647,-0.04,0.0575,0.0975,-0.009,-0.0685,0.077,0.0175,-0.021,-0.1425,-0.071,-0.029,-0.0975,-0.019,0.1175,-0.0745
0.648,-0.058,0.045,0.103,0.006,-0.08,0.0735,0.021,-0.0225,-0.141,-0.0675,-0.0255,-0.0925,-0.0185,0.1245,-0.0695
0.649,-0.0415,0.035,0.0765,0.003,-0.0585,0.055,0.021,-0.0215,-0.14,-0.0685,-0.027,-0.095,-0.02,0.1075,-0.0685
0.65,-0.0305,0.0375,0.0675,-0.004,-0.0485,0.052,0.02,-0.0205,-0.138,-0.069,-0.0265,-0.096,-0.021,0.1005,-0.08
0.651,-0.0035,0.05,0.0535,-0.0235,-0.0285,0.051,0.0125,-0.0335,-0.1475,-0.076,-0.0345,-0.1025,-0.022,0.094,-0.101
0.652,0.0055,0.0515,0.046,-0.0285,-0.02,0.048,0.0065,-0.041,-0.151,-0.08,-0.039,-0.106,-0.0235,0.095,-0.1135
0.653,0.0085,0.048,0.0395,-0.0285,-0.015,0.043,0.0045,-0.0415,-0.153,-0.084,-0.0415,-0.11,-0.0245,0.1025,-0.109
0.654,0.0115,0.0465,0.0345,-0.029,-0.011,0.04,0.0035,-0.0435,-0.155,-0.0855,-0.0425,-0.111,-0.0255,0.0995,-0.1035
0.655,0.0115,0.049,0.0375,-0.0305,-0.013,0.0425,0.0095,-0.041,-0.1525,-0.08,-0.037,-0.104,-0.024,0.1055,-0.086
0.656,0.0065,0.06,0.0535,-0.0335,-0.0235,0.0565,0.0115,-0.038,-0.15,-0.077,-0.0345,-0.1025,-0.0235,0.1165,-0.0705
0.657,-0.0095,0.0575,0.067,-0.0245,-0.038,0.062,0.011,-0.038,-0.148,-0.0765,-0.033,-0.102,-0.026,0.118,-0.0695
0.658,-0.0175,0.0555,0.0735,-0.019,-0.045,0.064,0.0125,-0.0375,-0.149,-0.075,-0.0315,-0.1,-0.026,0.117,-0.07
0.659,-0.0335,0.053,0.086,-0.01,-0.0595,0.069,0.007,-0.0415,-0.1535,-0.0805,-0.036,-0.104,-0.026,0.128,-0.0665
0.66,-0.047,0.038,0.085,0.004,-0.0655,0.061,-0.004,-0.051,-0.163,-0.089,-0.0455,-0.113,-0.0275,0.123,-0.0625
0.661,-0.043,0.0385,0.0815,0.002,-0.0615,0.0595,-0.006,-0.054,-0.164,-0.089,-0.045,-0.114,-0.0275,0.1225,-0.059
0.662,-0.0345,0.049,0.084,-0.0075,-0.059,0.066,-0.002,-0.0515,-0.1625,-0.0865,-0.0405,-0.1095,-0.0265,0.1325,-0.0575
0.663,-0.049,0.05,0.099,-0.001,-0.0735,0.074,0.007,-0.0435,-0.156,-0.0785,-0.0325,-0.102,-0.027,0.123,-0.065
0.664,-0.042,0.0425,0.0845,-0.0005,-0.063,0.063,0.007,-0.0465,-0.157,-0.0795,-0.0325,-0.102,-0.026,0.1115,-0.0705
0.665,-0.0035,0.0435,0.047,-0.02,-0.025,0.045,-0.0065,-0.059,-0.172,-0.093,-0.047,-0.114,-0.0235,0.107,-0.065
0.666,-0.0075,0.049,0.057,-0.021,-0.032,0.0525,-0.006,-0.054,-0.171,-0.0915,-0.045,-0.112,-0.0205,0.102,-0.066
0.667,-0.0085,0.054,0.062,-0.023,-0.035,0.0575,-0.0045,-0.0515,-0.1655,-0.0875,-0.0395,-0.106,-0.015,0.1,-0.0665
0.668,-0.0035,0.0675,0.071,-0.032,-0.037,0.0685,-0.01,-0.0555,-0.168,-0.09,-0.0415,-0.108,-0.013,0.1185,-0.0575
0.669,-0.0205,0.0725,0.093,-0.0265,-0.0565,0.0825,-0.0015,-0.0495,-0.161,-0.0825,-0.0335,-0.0995,-0.0085,0.1305,-0.0585
0.67,-0.016,0.0625,0.0785,-0.0235,-0.047,0.07,0.006,-0.0435,-0.153,-0.0765,-0.027,-0.0935,-0.0075,0.1195,-0.0615
0.671,-0.0385,0.043,0.0815,-0.0025,-0.06,0.0615,0.007,-0.042,-0.1525,-0.0765,-0.028,-0.0945,-0.0095,0.123,-0.0595
0.672,-0.0485,0.049,0.0975,-0.0005,-0.0725,0.073,0.012,-0.039,-0.148,-0.071,-0.0245,-0.0885,-0.01,0.123,-0.062
0.673,-0.035,0.0715,0.1065,-0.0185,-0.0705,0.0885,0.017,-0.0355,-0.1405,-0.0645,-0.0175,-0.082,-0.0115,0.1145,-0.063
0.674,-0.0415,0.065,0.1065,-0.0125,-0.0735,0.0855,0.015,-0.0375,-0.1435,-0.067,-0.02,-0.083,-0.0115,0.115,-0.062
0.675,-0.018,0.056,0.074,-0.0195,-0.046,0.0645,-0.002,-0.0535,-0.1595,-0.082,-0.0355,-0.0985,-0.015,0.1025,-0.067
0.676,-0.009,0.0495,0.0585,-0.0205,-0.0335,0.0535,-0.015,-0.0655,-0.17,-0.094,-0.046,-0.1085,-0.016,0.1115,-0.0695
0.677,-0.015,0.0455,0.0605,-0.0155,-0.0375,0.0525,-0.015,-0.0665,-0.1715,-0.0955,-0.046,-0.107,-0.016,0.129,-0.0635
0.678,-0.0285,0.0455,0.074,-0.0085,-0.051,0.059,-0.0145,-0.0665,-0.171,-0.0945,-0.045,-0.1075,-0.0195,0.13,-0.066
0.679,-0.054,0.0515,0.1055,0.001,-0.0795,0.078,-0.0075,-0.0605,-0.165,-0.0885,-0.0405,-0.1005,-0.0195,0.134,-0.065
0.68,-0.051,0.059,0.11,-0.004,-0.0805,0.084,-0.006,-0.0615,-0.1655,-0.0885,-0.0415,-0.1015,-0.02,0.1345,-0.064
0.681,-0.048,0.06,0.108,-0.0065,-0.0775,0.0835,-0.009,-0.066,-0.167,-0.09,-0.0435,-0.1035,-0.02,0.1355,-0.065
0.682,-0.0495,0.059,0.1085,-0.005,-0.0785,0.083,-0.0095,-0.0655,-0.1665,-0.0895,-0.0415,-0.1,-0.018,0.1305,-0.07
0.683,-0.033,0.056,0.089,-0.012,-0.061,0.072,-0.0135,-0.0705,-0.1695,-0.09,-0.041,-0.102,-0.0195,0.124,-0.08
0.684,-0.02,0.0645,0.084,-0.0225,-0.0515,0.074,-0.0095,-0.0685,-0.168,-0.087,-0.039,-0.0985,-0.0175,0.1235,-0.0795
0.685,-0.0085,0.0845,0.0925,-0.038,-0.0505,0.088,-0.0095,-0.072,-0.1705,-0.0885,-0.041,-0.1,-0.016,0.127,-0.0795
0.686,-0.0075,0.08,0.087,-0.0365,-0.047,0.083,-0.0065,-0.07,-0.1685,-0.0845,-0.0355,-0.097,-0.017,0.123,-0.0805
0.687,-0.008,0.056,0.0635,-0.0245,-0.0355,0.059,-0.003,-0.066,-0.168,-0.082,-0.033,-0.0915,-0.016,0.107,-0.082
0.688,-0.005,0.0475,0.0525,-0.0215,-0.0285,0.0495,-0.0095,-0.0735,-0.177,-0.087,-0.0385,-0.0975,-0.0125,0.1035,-0.081
0.689,-0.014,0.043,0.057,-0.015,-0.0355,0.0495,-0.0125,-0.0785,-0.1825,-0.091,-0.04,-0.1,-0.0115,0.106,-0.079
0.69,-0.0115,0.0415,0.053,-0.015,-0.032,0.0465,-0.0155,-0.081,-0.1845,-0.0915,-0.04,-0.099,-0.01,0.098,-0.081
0.691,-0.03,0.049,0.079,-0.01,-0.054,0.0635,-0.004,-0.0685,-0.1725,-0.08,-0.0265,-0.0855,-0.008,0.103,-0.0775
0.692,-0.0445,0.052,0.0965,-0.004,-0.07,0.074,0.006,-0.06,-0.162,-0.071,-0.0165,-0.075,-0.0075,0.109,-0.075
0.693,-0.029,0.0595,0.089,-0.0155,-0.0585,0.074,0.0065,-0.0605,-0.1605,-0.068,-0.0135,-0.074,-0.0055,0.107,-0.074
0.694,-0.0255,0.0735,0.0985,-0.024,-0.0615,0.0855,0.004,-0.064,-0.1635,-0.0705,-0.0145,-0.075,-0.007,0.1155,-0.0755
0.695,-0.023,0.06,0.083,-0.019,-0.053,0.071,-0.0075,-0.074,-0.174,-0.0815,-0.024,-0.085,-0.0065,0.113,-0.0745
0.696,-0.029,0.041,0.07,-0.006,-0.0495,0.055,-0.0115,-0.0775,-0.1775,-0.086,-0.0265,-0.0865,-0.0065,0.107,-0.0725
0.697,-0.0385,0.0445,0.083,-0.003,-0.0605,0.0635,-0.0095,-0.076,-0.1735,-0.081,-0.0215,-0.082,-0.0055,0.108,-0.073
0.698,-0.035,0.0505,0.0855,-0.0075,-0.06,0.0675,-0.014,-0.0805,-0.174,-0.0825,-0.0205,-0.083,-0.003,0.113,-0.0695
0.699,-0.0275,0.0585,0.086,-0.016,-0.0565,0.072,-0.02,-0.087,-0.1785,-0.087,-0.0265,-0.086,-0.004,0.122,-0.065
0.7,-0.032,0.0665,0.099,-0.0175,-0.0655,0.082,-0.017,-0.0815,-0.1755,-0.0845,-0.024,-0.082,-0.003,0.118,-0.061
0.701,-0.0365,0.0545,0.0915,-0.009,-0.064,0.0725,-0.0225,-0.0925,-0.1805,-0.0895,-0.0265,-0.086,-0.0035,0.1135,-0.066
0.702,-0.025,0.052,0.0765,-0.014,-0.0505,0.064,-0.035,-0.104,-0.191,-0.0985,-0.035,-0.093,0.0,0.123,-0.0705
0.703,-0.0315,0.056,0.088,-0.0125,-0.0595,0.0715,-0.03,-0.0905,-0.1835,-0.0915,-0.026,-0.0855,0.004,0.121,-0.0635
0.704,-0.056,0.057,0.113,-0.0005,-0.084,0.0845,-0.02,-0.084,-0.176,-0.083,-0.019,-0.078,0.003,0.125,-0.0575
0.705,-0.0735,0.0615,0.1355,0.0055,-0.104,0.098,-0.0165,-0.082,-0.173,-0.0775,-0.0145,-0.0725,0.0015,0.1325,-0.0615
0.706,-0.08,0.0485,0.128,0.0155,-0.104,0.0875,-0.013,-0.081,-0.171,-0.075,-0.0115,-0.069,0.0005,0.116,-0.065
0.707,-0.0605,0.0445,0.105,0.008,-0.0825,0.074,-0.0175,-0.0865,-0.1765,-0.08,-0.0155,-0.074,0.0015,0.1155,-0.066
0.708,-0.0265,0.058,0.0845,-0.016,-0.0555,0.0705,-0.023,-0.0925,-0.18,-0.084,-0.0195,-0.0785,0.001,0.121,-0.0665
0.709,-0.025,0.0725,0.0975,-0.024,-0.061,0.0845,-0.0205,-0.095,-0.1815,-0.0855,-0.02,-0.0785,-0.001,0.126,-0.0605
0.71,-0.0275,0.067,0.0945,-0.02,-0.061,0.08,-0.0215,-0.0975,-0.1865,-0.09,-0.022,-0.0805,-0.003,0.121,-0.056
0.711,-0.0145,0.05,0.065,-0.018,-0.0395,0.057,-0.0265,-0.1035,-0.193,-0.095,-0.0285,-0.085,-0.0035,0.1145,-0.0595
0.712,-0.0215,0.049,0.07,-0.014,-0.045,0.0585,-0.024,-0.1015,-0.1915,-0.0925,-0.026,-0.083,-0.0045,0.1115,-0.06
0.713,-0.0275,0.048,0.075,-0.0105,-0.051,0.061,-0.0195,-0.098,-0.1875,-0.0895,-0.021,-0.081,-0.006,0.1045,-0.063
0.714,-0.0175,0.0505,0.0675,-0.0165,-0.042,0.0585,-0.0225,-0.1025,-0.191,-0.0925,-0.023,-0.083,-0.007,0.099,-0.0705
0.715,-0.024,0.0505,0.0745,-0.013,-0.049,0.0615,-0.0265,-0.1095,-0.1915,-0.0925,-0.0225,-0.081,-0.0075,0.102,-0.0695
0.716,-0.042,0.049,0.0905,-0.0035,-0.066,0.0695,-0.0245,-0.112,-0.1915,-0.09,-0.0195,-0.078,-0.008,0.115,-0.075
0.717,-0.058,0.0515,0.109,0.003,-0.0835,0.08,-0.02,-0.099,-0.1855,-0.084,-0.013,-0.0715,-0.0055,0.1125,-0.079
0.718,-0.0795,0.0585,0.138,0.0105,-0.1085,0.098,-0.0205,-0.0935,-0.18,-0.08,-0.008,-0.067,-0.0045,0.117,-0.0755
0.719,-0.115,0.0575,0.1725,0.0285,-0.1435,0.115,-0.013,-0.091,-0.174,-0.072,0.0,-0.0595,-0.008,0.1175,-0.0755
0.72,-0.128,0.0455,0.1735,0.041,-0.1505,0.109,-0.0075,-0.086,-0.167,-0.067,0.0055,-0.053,-0.0075,0.1135,-0.0685
0.721,-0.076,0.0405,0.1165,0.017,-0.096,0.078,-0.022,-0.102,-0.1825,-0.083,-0.01,-0.067,-0.0055,0.119,-0.058
0.722,-0.0185,0.0465,0.0645,-0.014,-0.0415,0.055,-0.039,-0.1205,-0.202,-0.0985,-0.0255,-0.082,-0.004,0.122,-0.0535
0.723,0.0175,0.0515,0.034,-0.0345,-0.008,0.042,-0.054,-0.135,-0.217,-0.1115,-0.037,-0.095,-0.0005,0.119,-0.0535
0.724,0.025,0.066,0.041,-0.046,-0.0075,0.053,-0.0615,-0.144,-0.223,-0.117,-0.043,-0.099,0.0035,0.1275,-0.0535
0.725,-0.0075,0.0795,0.087,-0.0365,-0.047,0.0825,-0.051,-0.1325,-0.212,-0.105,-0.0305,-0.084,0.0075,0.141,-0.0535
0.726,-0.0245,0.067,0.0915,-0.0215,-0.0575,0.079,-0.038,-0.1255,-0.202,-0.0935,-0.0165,-0.073,0.0075,0.123,-0.0665
0.727,-0.023,0.062,0.085,-0.02,-0.054,0.073,-0.033,-0.122,-0.1995,-0.088,-0.0135,-0.067,0.0085,0.1125,-0.077
0.728,-0.0475,0.053,0.1005,-0.003,-0.0735,0.076,-0.0315,-0.115,-0.1975,-0.086,-0.012,-0.065,0.0075,0.1075,-0.078
0.729,-0.055,0.0485,0.1035,0.003,-0.079,0.0755,-0.0345,-0.123,-0.201,-0.09,-0.015,-0.069,0.007,0.0995,-0.0835
0.73,-0.063,0.0235,0.0865,0.0195,-0.0745,0.0545,-0.0425,-0.1305,-0.211,-0.0975,-0.0235,-0.076,0.0075,0.097,-0.079
0.731,-0.046,0.021,0.067,0.0125,-0.056,0.0435,-0.042,-0.131,-0.21,-0.0965,-0.0215,-0.0755,0.0045,0.096,-0.0775
0.732,-0.002,0.066,0.068,-0.0325,-0.0345,0.0665,-0.038,-0.1305,-0.203,-0.091,-0.014,-0.068,0.0045,0.1135,-0.0835
0.733,-0.013,0.078,0.091,-0.033,-0.052,0.084,-0.034,-0.1275,-0.2005,-0.0885,-0.0125,-0.0645,0.0035,0.1215,-0.079
0.734,-0.032,0.093,0.126,-0.0305,-0.079,0.109,-0.0325,-0.125,-0.1975,-0.083,-0.009,-0.061,0.002,0.133,-0.0685
0.735,-0.0285,0.088,0.1165,-0.03,-0.072,0.1015,-0.035,-0.1305,-0.201,-0.086,-0.012,-0.064,0.002,0.135,-0.0585
0.736,-0.0345,0.078,0.1125,-0.022,-0.073,0.0945,-0.034,-0.131,-0.203,-0.089,-0.0125,-0.0635,0.0015,0.138,-0.054
0.737,-0.062,0.0645,0.1265,-0.0015,-0.094,0.095,-0.0245,-0.12,-0.194,-0.0785,-0.002,-0.054,-0.0005,0.133,-0.0545
0.738,-0.037,0.0445,0.0815,-0.004,-0.059,0.0625,-0.0355,-0.1325,-0.2045,-0.0905,-0.015,-0.0675,0.0,0.114,-0.056
0.739,-0.001,0.058,0.0585,-0.0285,-0.0295,0.058,-0.06,-0.1565,-0.227,-0.115,-0.0395,-0.0895,-0.001,0.1295,-0.054
0.74,-0.0095,0.0445,0.054,-0.018,-0.0315,0.0485,-0.0515,-0.1495,-0.2185,-0.1065,-0.032,-0.0835,-0.002,0.1275,-0.057
0.741,-0.019,0.032,0.051,-0.007,-0.0345,0.041,-0.043,-0.141,-0.209,-0.097,-0.0205,-0.074,-0.002,0.1135,-0.058
0.742,-0.0235,0.049,0.072,-0.013,-0.0475,0.06,-0.0445,-0.142,-0.211,-0.097,-0.0225,-0.075,-0.005,0.121,-0.051
0.743,-0.022,0.0535,0.0755,-0.016,-0.0485,0.064,-0.0395,-0.1385,-0.2055,-0.0935,-0.0175,-0.0705,-0.0035,0.125,-0.048
0.744,-0.0155,0.068,0.084,-0.0265,-0.0495,0.0755,-0.0415,-0.14,-0.205,-0.0945,-0.0165,-0.0695,0.0005,0.1335,-0.042
0.745,-0.0125,0.0765,0.089,-0.0325,-0.0505,0.0825,-0.0445,-0.1415,-0.207,-0.095,-0.0175,-0.073,0.0025,0.1395,-0.043
0.746,-0.033,0.061,0.0945,-0.0145,-0.0635,0.0775,-0.0445,-0.1425,-0.2065,-0.0955,-0.018,-0.074,0.0005,0.126,-0.046
0.747,-0.0415,0.069,0.1105,-0.014,-0.0755,0.089,-0.0425,-0.1435,-0.206,-0.095,-0.018,-0.0745,-0.0005,0.1265,-0.044
0.748,-0.052,0.0485,0.1005,0.0015,-0.076,0.074,-0.0455,-0.1445,-0.208,-0.097,-0.0195,-0.077,0.0015,0.127,-0.0465
0.749,-0.055,0.0425,0.097,0.006,-0.0755,0.069,-0.043,-0.1425,-0.206,-0.0945,-0.017,-0.0735,0.004,0.114,-0.052
0.75,-0.0395,0.07,0.11,-0.0155,-0.0745,0.0895,-0.0335,-0.133,-0.1955,-0.0845,-0.007,-0.0635,0.005,0.1125,-0.059
0.751,-0.0475,0.065,0.113,-0.009,-0.08,0.0885,-0.03,-0.1285,-0.1915,-0.0805,-0.0025,-0.0585,0.005,0.1125,-0.052
0.752,-0.0535,0.063,0.1165,-0.005,-0.0845,0.0895,-0.0265,-0.1265,-0.1895,-0.0785,0.0015,-0.056,0.004,0.1175,-0.0495
0.753,-0.056,0.071,0.1275,-0.0075,-0.0915,0.0985,-0.0205,-0.122,-0.1845,-0.073,0.008,-0.0505,0.003,0.121,-0.0525
0.754,-0.0495,0.081,0.1305,-0.016,-0.0895,0.105,-0.016,-0.12,-0.1825,-0.0695,0.0105,-0.0475,0.003,0.117,-0.0495
0.755,-0.029,0.077,0.106,-0.024,-0.067,0.091,-0.0285,-0.132,-0.1955,-0.0815,-0.0025,-0.058,0.003,0.1315,-0.048
0.756,-0.0285,0.076,0.104,-0.024,-0.066,0.0895,-0.037,-0.142,-0.2055,-0.0915,-0.011,-0.0665,0.0045,0.1475,-0.0465
0.757,-0.0255,0.068,0.0935,-0.0215,-0.059,0.08,-0.0415,-0.1495,-0.2105,-0.097,-0.017,-0.071,0.0045,0.1415,-0.051
0.758,-0.017,0.0455,0.0625,-0.0145,-0.0395,0.0535,-0.0485,-0.1585,-0.2185,-0.1045,-0.0245,-0.076,0.0045,0.1265,-0.05
0.759,-0.024,0.037,0.061,-0.0065,-0.042,0.0485,-0.048,-0.154,-0.2175,-0.1035,-0.024,-0.0765,0.0025,0.1195,-0.0525
0.76,-0.0285,0.0415,0.07,-0.007,-0.049,0.055,-0.0555,-0.1595,-0.2245,-0.11,-0.031,-0.0825,0.001,0.125,-0.0595
0.761,-0.0355,0.0505,0.0865,-0.0075,-0.061,0.068,-0.0565,-0.1645,-0.2265,-0.1105,-0.0315,-0.0835,0.0,0.1245,-0.062
0.762,-0.0265,0.0635,0.09,-0.019,-0.058,0.076,-0.053,-0.1625,-0.224,-0.1055,-0.026,-0.077,0.001,0.115,-0.066
0.763,-0.021,0.0765,0.097,-0.028,-0.0585,0.086,-0.0515,-0.162,-0.219,-0.102,-0.0205,-0.07,0.0035,0.1205,-0.0635
0.764,-0.0295,0.0855,0.115,-0.028,-0.072,0.0995,-0.0525,-0.1615,-0.2185,-0.101,-0.0205,-0.0695,0.003,0.142,-0.0655
0.765,-0.029,0.087,0.1155,-0.029,-0.072,0.1005,-0.0505,-0.159,-0.2155,-0.0985,-0.016,-0.061,0.0095,0.1495,-0.0595
0.766,-0.0345,0.068,0.1025,-0.017,-0.0685,0.085,-0.0425,-0.15,-0.205,-0.087,-0.0055,-0.0525,0.0105,0.137,-0.0535
0.767,-0.0385,0.064,0.1025,-0.013,-0.07,0.083,-0.0445,-0.1525,-0.207,-0.087,-0.0075,-0.057,0.0075,0.1335,-0.057
0.768,-0.0375,0.0585,0.096,-0.011,-0.0665,0.077,-0.0425,-0.1505,-0.203,-0.084,-0.0045,-0.0535,0.0085,0.139,-0.0455
0.769,-0.0355,0.0515,0.087,-0.0085,-0.061,0.0685,-0.0445,-0.1525,-0.2045,-0.0845,-0.007,-0.057,0.0095,0.129,-0.035
0.77,-0.0335,0.062,0.0955,-0.0145,-0.0645,0.078,-0.0505,-0.16,-0.21,-0.089,-0.0105,-0.061,0.0125,0.1315,-0.0395
0.771,-0.0545,0.059,0.1135,-0.0025,-0.0835,0.086,-0.042,-0.15,-0.1985,-0.0785,-0.001,-0.052,0.013,0.1285,-0.0565
0.772,-0.0765,0.0485,0.1245,0.0135,-0.1005,0.086,-0.037,-0.144,-0.1935,-0.0755,0.0015,-0.051,0.01,0.111,-0.068
0.773,-0.058,0.0475,0.105,0.005,-0.081,0.0755,-0.0455,-0.153,-0.202,-0.085,-0.0095,-0.0625,0.009,0.117,-0.067
0.774,-0.037,0.052,0.0895,-0.008,-0.063,0.0705,-0.051,-0.157,-0.2065,-0.09,-0.0145,-0.0675,0.009,0.124,-0.0665
0.775,-0.028,0.068,0.0965,-0.0205,-0.062,0.082,-0.0475,-0.1515,-0.202,-0.0855,-0.009,-0.0635,0.0075,0.1285,-0.07
0.776,-0.021,0.0815,0.103,-0.0305,-0.0615,0.0915,-0.043,-0.151,-0.2005,-0.0845,-0.007,-0.062,0.0065,0.127,-0.0755
0.777,-0.015,0.091,0.106,-0.0385,-0.0605,0.098,-0.0425,-0.153,-0.201,-0.087,-0.008,-0.063,0.0055,0.1215,-0.069
0.778,-0.0165,0.091,0.1075,-0.0375,-0.062,0.099,-0.0445,-0.1535,-0.203,-0.0895,-0.011,-0.065,0.0055,0.1285,-0.061
0.779,-0.037,0.0625,0.1,-0.013,-0.068,0.0805,-0.053,-0.1635,-0.211,-0.099,-0.0205,-0.0735,0.003,0.1385,-0.056
0.78,-0.048,0.0495,0.097,-0.001,-0.072,0.0725,-0.06,-0.17,-0.2185,-0.1085,-0.031,-0.0835,-0.002,0.1445,-0.0505
0.781,-0.0415,0.0495,0.091,-0.004,-0.066,0.0695,-0.056,-0.167,-0.218,-0.1065,-0.0295,-0.082,-0.0005,0.129,-0.0565
0.782,-0.0755,0.0525,0.128,0.011,-0.1015,0.09,-0.042,-0.1545,-0.2035,-0.0905,-0.012,-0.065,0.003,0.12,-0.0585
0.783,-0.126,0.056,0.182,0.0345,-0.1535,0.119,-0.024,-0.141,-0.19,-0.0765,0.0025,-0.05,0.0015,0.1245,-0.0585
0.784,-0.1255,0.0515,0.177,0.037,-0.151,0.1135,-0.022,-0.14,-0.1885,-0.076,0.0045,-0.0475,0.001,0.1105,-0.0565
0.785,-0.11,0.051,0.1605,0.0295,-0.135,0.105,-0.029,-0.139,-0.192,-0.0775,0.002,-0.049,0.0025,0.109,-0.046
0.786,-0.0725,0.044,0.1165,0.014,-0.0945,0.08,-0.0405,-0.151,-0.2025,-0.087,-0.0065,-0.059,0.0035,0.115,-0.042
0.787,-0.017,0.0485,0.0655,-0.016,-0.041,0.0565,-0.062,-0.1715,-0.222,-0.1065,-0.0245,-0.0775,0.0025,0.1175,-0.046
0.788,0.0035,0.058,0.0545,-0.031,-0.025,0.0555,-0.074,-0.1835,-0.2325,-0.117,-0.035,-0.0885,0.0025,0.134,-0.055
0.789,0.0,0.064,0.064,-0.032,-0.032,0.0635,-0.074,-0.1855,-0.2305,-0.1175,-0.0345,-0.086,0.0045,0.1375,-0.057
0.79,-0.0205,0.0585,0.079,-0.019,-0.0495,0.068,-0.062,-0.173,-0.22,-0.106,-0.0215,-0.0705,0.007,0.125,-0.0535
0.791,-0.0605,0.0565,0.117,0.0015,-0.0885,0.0865,-0.045,-0.157,-0.2035,-0.088,-0.004,-0.0545,0.0055,0.1265,-0.0485
0.792,-0.09,0.0725,0.1625,0.0085,-0.126,0.117,-0.0405,-0.1515,-0.196,-0.0845,0.0005,-0.051,0.004,0.1265,-0.0445
0.793,-0.084,0.062,0.146,0.011,-0.115,0.1035,-0.0395,-0.1505,-0.1935,-0.0835,0.002,-0.05,0.0055,0.1185,-0.047
0.794,-0.045,0.0485,0.0935,-0.002,-0.069,0.0705,-0.049,-0.159,-0.2045,-0.0905,-0.005,-0.057,0.005,0.1155,-0.0445
0.795,-0.018,0.0575,0.0755,-0.02,-0.0465,0.066,-0.0625,-0.1725,-0.219,-0.104,-0.018,-0.0685,0.0055,0.134,-0.052
0.796,-0.026,0.0645,0.0905,-0.0195,-0.058,0.077,-0.061,-0.1735,-0.2195,-0.104,-0.019,-0.0685,0.0065,0.155,-0.054
0.797,-0.0375,0.063,0.101,-0.013,-0.069,0.0815,-0.0595,-0.1735,-0.22,-0.1045,-0.019,-0.068,0.0075,0.1545,-0.04
0.798,-0.033,0.0655,0.099,-0.0165,-0.066,0.082,-0.0615,-0.1745,-0.2225,-0.1055,-0.022,-0.07,0.006,0.1555,-0.0395
0.799,-0.036,0.069,0.105,-0.0165,-0.07,0.0865,-0.061,-0.174,-0.225,-0.1055,-0.023,-0.0705,0.003,0.1465,-0.044
0.8,-0.0405,0.0835,0.124,-0.022,-0.082,0.103,-0.059,-0.172,-0.223,-0.103,-0.0185,-0.068,0.003,0.1455,-0.0455
0.801,-0.078,0.07,0.148,0.0035,-0.1125,0.1085,-0.0495,-0.1655,-0.2165,-0.0955,-0.0115,-0.06,0.0035,0.1445,-0.046
0.802,-0.0975,0.0565,0.154,0.02,-0.1255,0.105,-0.047,-0.1655,-0.2175,-0.0945,-0.01,-0.0575,0.0065,0.1435,-0.046
0.803,-0.0455,0.0735,0.119,-0.0145,-0.082,0.096,-0.0525,-0.169,-0.222,-0.1,-0.014,-0.0645,0.006,0.147,-0.043
0.804,-0.0185,0.0665,0.085,-0.0245,-0.0515,0.075,-0.06,-0.177,-0.231,-0.11,-0.0245,-0.0755,0.0075,0.141,-0.0355
0.805,-0.0215,0.068,0.0895,-0.0235,-0.0555,0.0785,-0.062,-0.1795,-0.2315,-0.11,-0.024,-0.074,0.0135,0.145,-0.032
0.806,-0.0385,0.0675,0.1055,-0.0145,-0.072,0.086,-0.0545,-0.172,-0.224,-0.1015,-0.0155,-0.0655,0.0125,0.136,-0.034
0.807,-0.0465,0.0755,0.1215,-0.0145,-0.0835,0.098,-0.049,-0.167,-0.2205,-0.0975,-0.012,-0.0615,0.013,0.136,-0.0375
0.808,-0.057,0.09,0.147,-0.0165,-0.1015,0.118,-0.036,-0.154,-0.2085,-0.0855,0.002,-0.049,0.014,0.1475,-0.041
0.809,-0.026,0.0945,0.1205,-0.0345,-0.073,0.1075,-0.043,-0.1595,-0.2145,-0.0915,-0.004,-0.0565,0.015,0.14,-0.0465
0.81,0.016,0.087,0.071,-0.0515,-0.0275,0.0785,-0.057,-0.1725,-0.2265,-0.1045,-0.016,-0.068,0.016,0.1235,-0.058
0.811,-0.002,0.0745,0.0765,-0.0365,-0.039,0.075,-0.0515,-0.168,-0.2195,-0.098,-0.009,-0.063,0.0165,0.1195,-0.0705
0.812,-0.0145,0.0695,0.084,-0.0275,-0.049,0.076,-0.054,-0.17,-0.22,-0.102,-0.0125,-0.0665,0.0155,0.1215,-0.074
0.813,-0.03,0.0675,0.0975,-0.019,-0.0635,0.082,-0.0515,-0.167,-0.217,-0.0995,-0.0105,-0.0625,0.0135,0.1315,-0.0725
0.814,-0.0435,0.069,0.1125,-0.013,-0.078,0.0905,-0.046,-0.1625,-0.2125,-0.0915,-0.0045,-0.056,0.013,0.13,-0.0755
0.815,-0.0415,0.0635,0.105,-0.0115,-0.073,0.084,-0.0415,-0.1585,-0.21,-0.0925,-0.002,-0.054,0.0105,0.119,-0.0745
0.816,-0.026,0.079,0.1045,-0.0265,-0.065,0.091,-0.0365,-0.1525,-0.2035,-0.089,0.003,-0.0505,0.01,0.1335,-0.0745
0.817,-0.0295,0.0775,0.1065,-0.024,-0.068,0.0915,-0.041,-0.159,-0.209,-0.0925,-0.0015,-0.0535,0.0095,0.1385,-0.0735
0.818,-0.051,0.0605,0.112,-0.005,-0.0815,0.086,-0.047,-0.165,-0.218,-0.1005,-0.0095,-0.0605,0.008,0.141,-0.0685
0.819,-0.0605,0.0595,0.12,0.0,-0.09,0.0895,-0.0505,-0.169,-0.2205,-0.103,-0.0125,-0.0635,0.0075,0.1535,-0.0645
0.82,-0.062,0.063,0.1245,-0.001,-0.093,0.0935,-0.046,-0.164,-0.213,-0.0975,-0.007,-0.06,0.0065,0.1425,-0.068
0.821,-0.045,0.074,0.119,-0.0145,-0.082,0.096,-0.043,-0.1605,-0.209,-0.0935,-0.005,-0.058,0.007,0.1405,-0.0745
0.822,-0.044,0.079,0.123,-0.0175,-0.0835,0.1005,-0.042,-0.1595,-0.206,-0.09,-0.003,-0.0555,0.008,0.1555,-0.0765
0.823,-0.042,0.0835,0.1255,-0.021,-0.0835,0.104,-0.0385,-0.153,-0.2005,-0.0855,0.0015,-0.0525,0.01,0.1515,-0.0785
0.824,-0.0355,0.0925,0.1285,-0.0285,-0.082,0.11,-0.0375,-0.1515,-0.1975,-0.084,0.002,-0.054,0.0085,0.1625,-0.075
0.825,-0.0445,0.102,0.146,-0.029,-0.095,0.1235,-0.0305,-0.146,-0.193,-0.078,0.006,-0.0515,0.0065,0.174,-0.0685
0.826,-0.038,0.114,0.152,-0.0385,-0.0945,0.1325,-0.029,-0.147,-0.193,-0.075,0.007,-0.0505,0.009,0.1705,-0.0745
0.827,-0.0335,0.1165,0.1495,-0.0415,-0.0915,0.1325,-0.0245,-0.145,-0.188,-0.0705,0.0125,-0.0475,0.01,0.1795,-0.0815
0.828,-0.026,0.1185,0.1445,-0.0465,-0.085,0.131,-0.024,-0.1455,-0.1895,-0.0705,0.0105,-0.049,0.009,0.1885,-0.0785
0.829,-0.021,0.1235,0.1445,-0.0515,-0.082,0.1335,-0.0275,-0.1475,-0.1945,-0.0735,0.005,-0.054,0.0085,0.1855,-0.073
0.83,-0.031,0.112,0.143,-0.0405,-0.0865,0.127,-0.016,-0.1355,-0.1845,-0.065,0.0145,-0.044,0.009,0.1815,-0.06
0.831,-0.045,0.1065,0.1515,-0.031,-0.098,0.1285,-0.003,-0.1215,-0.171,-0.0515,0.027,-0.031,0.009,0.183,-0.0545
0.832,-0.047,0.1135,0.1605,-0.0335,-0.1035,0.1365,0.0015,-0.1195,-0.165,-0.0455,0.0335,-0.0255,0.0095,0.186,-0.0555
0.833,-0.0365,0.123,0.1595,-0.0435,-0.0975,0.1405,-0.006,-0.1295,-0.1715,-0.0525,0.0275,-0.0295,0.01,0.193,-0.052
0.834,-0.029,0.1235,0.1525,-0.0475,-0.0905,0.1375,-0.0115,-0.1385,-0.1765,-0.058,0.0215,-0.034,0.009,0.1915,-0.0485
0.835,-0.0215,0.12,0.1415,-0.0495,-0.0815,0.1305,-0.0115,-0.147,-0.1795,-0.0595,0.021,-0.0345,0.0055,0.1965,-0.0465
0.836,-0.0245,0.128,0.1525,-0.052,-0.088,0.14,-0.0155,-0.1355,-0.18,-0.059,0.0215,-0.034,0.006,0.2085,-0.05
0.837,-0.0545,0.118,0.1725,-0.032,-0.113,0.145,-0.0155,-0.124,-0.176,-0.0555,0.0245,-0.0315,0.0055,0.2135,-0.0475
0.838,-0.0635,0.105,0.168,-0.021,-0.1155,0.136,-0.0165,-0.1355,-0.1795,-0.059,0.022,-0.033,0.002,0.214,-0.0495
0.839,-0.031,0.1125,0.143,-0.041,-0.087,0.127,-0.0245,-0.144,-0.1875,-0.067,0.015,-0.04,0.0025,0.2155,-0.057
0.84,-0.0325,0.1185,0.151,-0.0435,-0.0915,0.1345,-0.027,-0.145,-0.1885,-0.0685,0.0145,-0.041,-0.0005,0.221,-0.0615
0.841,-0.043,0.121,0.1635,-0.039,-0.103,0.142,-0.026,-0.141,-0.186,-0.0655,0.018,-0.035,-0.001,0.214,-0.0615
0.842,-0.04,0.123,0.163,-0.042,-0.101,0.1425,-0.0245,-0.14,-0.184,-0.0605,0.0215,-0.0305,0.0005,0.2065,-0.0655
0.843,-0.033,0.135,0.168,-0.0515,-0.1,0.151,-0.027,-0.1425,-0.182,-0.06,0.024,-0.0295,-0.0015,0.2075,-0.0775
0.844,-0.0205,0.143,0.1635,-0.0615,-0.0915,0.1525,-0.031,-0.1435,-0.184,-0.0615,0.025,-0.028,0.0,0.2085,-0.079
0.845,-0.0225,0.139,0.1615,-0.0585,-0.092,0.15,-0.03,-0.146,-0.184,-0.0595,0.026,-0.0255,-0.001,0.205,-0.08
0.846,-0.0235,0.1395,0.163,-0.058,-0.093,0.151,-0.0265,-0.145,-0.178,-0.0535,0.032,-0.02,-0.0015,0.2005,-0.081
0.847,-0.0335,0.1425,0.1765,-0.0545,-0.1045,0.159,-0.0235,-0.136,-0.1715,-0.046,0.041,-0.011,0.002,0.21,-0.077
0.848,-0.0625,0.1315,0.1935,-0.0345,-0.128,0.162,-0.0345,-0.1415,-0.1795,-0.052,0.0345,-0.018,0.0045,0.2235,-0.068
0.849,-0.0835,0.1195,0.2025,-0.0185,-0.1425,0.1605,-0.0455,-0.152,-0.1885,-0.0605,0.024,-0.029,0.0055,0.2275,-0.0585
0.85,-0.0615,0.1175,0.179,-0.028,-0.12,0.148,-0.0565,-0.1615,-0.1955,-0.067,0.017,-0.0345,0.01,0.231,-0.0555
0.851,-0.0625,0.107,0.169,-0.0225,-0.1155,0.1375,-0.057,-0.1615,-0.1955,-0.0645,0.021,-0.031,0.017,0.235,-0.053
0.852,-0.089,0.12,0.209,-0.016,-0.149,0.164,-0.0295,-0.1365,-0.17,-0.0385,0.048,-0.0055,0.0175,0.22,-0.06
0.853,-0.0625,0.1525,0.215,-0.0455,-0.1385,0.1835,-0.0235,-0.1275,-0.1615,-0.0295,0.056,0.003,0.0165,0.211,-0.072
0.854,-0.0165,0.168,0.1845,-0.076,-0.1,0.176,-0.0415,-0.145,-0.173,-0.0415,0.0455,-0.0085,0.0185,0.222,-0.0775
0.855,-0.0135,0.167,0.1805,-0.077,-0.097,0.173,-0.0485,-0.1515,-0.177,-0.0435,0.0445,-0.0075,0.0195,0.223,-0.082
0.856,-0.0335,0.156,0.1895,-0.0615,-0.1115,0.172,-0.0535,-0.1475,-0.178,-0.0465,0.0435,-0.0085,0.0185,0.2175,-0.0755
0.857,-0.029,0.1605,0.1895,-0.066,-0.109,0.1745,-0.0615,-0.151,-0.1785,-0.047,0.0415,-0.008,0.0175,0.2285,-0.066
0.858,-0.0155,0.1705,0.186,-0.078,-0.1005,0.178,-0.069,-0.1575,-0.182,-0.0495,0.0395,-0.0095,0.0175,0.243,-0.069
0.859,-0.0045,0.17,0.1745,-0.083,-0.089,0.1715,-0.0795,-0.167,-0.191,-0.0605,0.0305,-0.0205,0.0185,0.248,-0.07
0.86,-0.006,0.1705,0.177,-0.0825,-0.091,0.173,-0.087,-0.1695,-0.1935,-0.063,0.0275,-0.021,0.02,0.2565,-0.061
0.861,-0.01,0.1745,0.184,-0.0825,-0.097,0.179,-0.085,-0.165,-0.188,-0.0585,0.0325,-0.018,0.0225,0.2655,-0.0535
0.862,-0.007,0.188,0.1955,-0.0905,-0.101,0.1915,-0.078,-0.1575,-0.183,-0.053,0.0355,-0.0145,0.0255,0.272,-0.048
0.863,-0.0245,0.1845,0.209,-0.08,-0.1165,0.196,-0.065,-0.146,-0.172,-0.041,0.0475,-0.0025,0.026,0.268,-0.047
0.864,-0.032,0.1765,0.2085,-0.0725,-0.12,0.192,-0.0585,-0.143,-0.167,-0.0335,0.054,0.0015,0.026,0.265,-0.0505
0.865,-0.047,0.1725,0.2195,-0.063,-0.133,0.1955,-0.0595,-0.146,-0.171,-0.035,0.053,0.0005,0.028,0.2615,-0.047
0.866,-0.0775,0.163,0.2405,-0.043,-0.1585,0.201,-0.057,-0.1435,-0.167,-0.031,0.0575,0.0055,0.03,0.2625,-0.0455
0.867,-0.0585,0.159,0.218,-0.0505,-0.138,0.188,-0.06,-0.144,-0.168,-0.0305,0.057,0.005,0.0325,0.254,-0.0475
0.868,-0.0215,0.17,0.192,-0.0745,-0.1065,0.1805,-0.065,-0.149,-0.173,-0.037,0.0505,-0.0005,0.0355,0.2475,-0.045
0.869,0.0215,0.2005,0.1795,-0.111,-0.079,0.1895,-0.065,-0.1455,-0.17,-0.036,0.05,-0.001,0.0405,0.259,-0.0455
0.87,0.044,0.208,0.164,-0.1265,-0.0595,0.1855,-0.0635,-0.1415,-0.167,-0.034,0.0545,0.0005,0.046,0.2535,-0.049
0.871,0.0305,0.1955,0.1655,-0.113,-0.0675,0.18,-0.063,-0.14,-0.165,-0.0315,0.057,0.0055,0.0495,0.2555,-0.046
0.872,0.0175,0.176,0.158,-0.097,-0.07,0.1665,-0.065,-0.14,-0.164,-0.03,0.06,0.0085,0.0525,0.2505,-0.044
0.873,0.0065,0.192,0.186,-0.0995,-0.0895,0.1885,-0.0795,-0.1485,-0.1725,-0.0385,0.052,0.001,0.0555,0.2575,-0.047
0.874,-0.001,0.1945,0.1955,-0.097,-0.098,0.1945,-0.0765,-0.1415,-0.1645,-0.0295,0.061,0.0095,0.0595,0.2585,-0.045
0.875,-0.0045,0.1765,0.181,-0.086,-0.0925,0.178,-0.064,-0.128,-0.149,-0.014,0.0765,0.025,0.0635,0.239,-0.045
0.876,0.016,0.1915,0.176,-0.104,-0.08,0.1835,-0.0775,-0.137,-0.158,-0.024,0.068,0.018,0.0635,0.247,-0.0405
0.877,0.038,0.1915,0.154,-0.115,-0.058,0.1725,-0.0865,-0.1455,-0.1665,-0.034,0.062,0.0105,0.064,0.252,-0.0345
0.878,0.029,0.18,0.151,-0.1045,-0.061,0.165,-0.088,-0.1475,-0.17,-0.037,0.0595,0.007,0.066,0.243,-0.03
0.879,0.017,0.1615,0.144,-0.0895,-0.063,0.152,-0.092,-0.149,-0.174,-0.04,0.0565,0.0045,0.068,0.2355,-0.023
0.88,0.021,0.1545,0.133,-0.088,-0.0555,0.143,-0.0935,-0.15,-0.1755,-0.042,0.055,0.003,0.0695,0.2335,-0.0285
0.881,0.026,0.1625,0.1365,-0.0945,-0.055,0.149,-0.0925,-0.1475,-0.173,-0.039,0.058,0.0045,0.0685,0.2285,-0.0385
0.882,0.0225,0.172,0.1495,-0.0975,-0.0635,0.16,-0.0875,-0.1425,-0.1695,-0.035,0.0635,0.0105,0.0695,0.225,-0.0375
0.883,0.0215,0.165,0.143,-0.0935,-0.0605,0.1535,-0.0835,-0.1425,-0.1695,-0.035,0.062,0.009,0.0675,0.2155,-0.029
0.884,0.038,0.1435,0.106,-0.091,-0.034,0.1245,-0.093,-0.154,-0.1825,-0.048,0.0495,-0.002,0.065,0.2125,-0.025
0.885,0.0125,0.1435,0.1305,-0.0785,-0.0585,0.1365,-0.0905,-0.153,-0.1825,-0.049,0.0515,0.0015,0.0635,0.2115,-0.0255
0.886,-0.0365,0.1515,0.188,-0.0575,-0.112,0.1695,-0.0655,-0.1305,-0.161,-0.026,0.073,0.025,0.0585,0.2015,-0.027
0.887,-0.023,0.135,0.158,-0.056,-0.0905,0.146,-0.072,-0.1385,-0.172,-0.0335,0.0655,0.0165,0.0575,0.1925,-0.03
0.888,0.0065,0.118,0.1115,-0.062,-0.052,0.114,-0.0915,-0.164,-0.195,-0.057,0.043,-0.0065,0.054,0.1805,-0.041
0.889,0.039,0.1105,0.0715,-0.075,-0.016,0.0905,-0.101,-0.176,-0.208,-0.07,0.029,-0.0215,0.052,0.174,-0.0545
0.89,0.055,0.108,0.0525,-0.0815,0.0015,0.0795,-0.096,-0.1745,-0.209,-0.0735,0.025,-0.0255,0.05,0.1635,-0.055
0.891,0.0265,0.1025,0.076,-0.0645,-0.0245,0.089,-0.088,-0.172,-0.2055,-0.071,0.0285,-0.021,0.0465,0.152,-0.045
0.892,0.0075,0.0875,0.0805,-0.048,-0.036,0.0835,-0.083,-0.17,-0.2035,-0.0685,0.031,-0.0215,0.044,0.1605,-0.047
0.893,-0.0065,0.09,0.0965,-0.042,-0.051,0.093,-0.071,-0.1615,-0.1935,-0.0605,0.037,-0.0145,0.04,0.167,-0.055
0.894,-0.023,0.0885,0.1115,-0.033,-0.067,0.0995,-0.066,-0.157,-0.19,-0.0565,0.041,-0.011,0.039,0.16,-0.055
0.895,-0.0315,0.082,0.1135,-0.0255,-0.0725,0.0975,-0.065,-0.159,-0.192,-0.061,0.036,-0.017,0.0345,0.166,-0.0575
0.896,-0.029,0.0795,0.1085,-0.0255,-0.0685,0.0935,-0.0695,-0.168,-0.202,-0.071,0.025,-0.0285,0.03,0.1545,-0.057
0.897,-0.0205,0.0805,0.101,-0.03,-0.0605,0.09,-0.0735,-0.171,-0.207,-0.0775,0.019,-0.0345,0.028,0.1475,-0.047
0.898,-0.0285,0.0785,0.107,-0.0255,-0.0675,0.0925,-0.073,-0.172,-0.2045,-0.076,0.0185,-0.0335,0.0275,0.15,-0.0385
0.899,-0.0225,0.0745,0.0975,-0.026,-0.0595,0.0855,-0.07,-0.1705,-0.207,-0.0785,0.0175,-0.036,0.0255,0.1385,-0.036
0.9,-0.026,0.0755,0.1015,-0.025,-0.0635,0.088,-0.0635,-0.1635,-0.205,-0.078,0.018,-0.035,0.024,0.144,-0.035
0.901,-0.047,0.068,0.115,-0.011,-0.081,0.091,-0.0565,-0.156,-0.1965,-0.0685,0.026,-0.0265,0.0215,0.139,-0.0325
0.902,-0.0515,0.0605,0.112,-0.005,-0.0815,0.086,-0.0525,-0.154,-0.1965,-0.068,0.027,-0.027,0.02,0.128,-0.032
0.903,-0.044,0.0445,0.0885,-0.0005,-0.066,0.066,-0.059,-0.1595,-0.2035,-0.0785,0.0165,-0.037,0.0205,0.1235,-0.0385
0.904,-0.023,0.0365,0.059,-0.007,-0.041,0.047,-0.0695,-0.1715,-0.216,-0.0905,0.0035,-0.05,0.021,0.1175,-0.037
0.905,-0.0125,0.0405,0.053,-0.014,-0.0325,0.0465,-0.07,-0.1725,-0.219,-0.091,0.002,-0.05,0.023,0.119,-0.0275
0.906,-0.019,0.042,0.061,-0.0115,-0.04,0.051,-0.064,-0.1595,-0.2125,-0.0855,0.0065,-0.0465,0.024,0.114,-0.0285
0.907,-0.0345,0.0415,0.076,-0.0035,-0.055,0.058,-0.0595,-0.16,-0.214,-0.0835,0.0075,-0.0465,0.0245,0.1015,-0.0285
0.908,-0.0325,0.036,0.0685,-0.002,-0.05,0.0515,-0.0635,-0.161,-0.218,-0.0855,0.007,-0.0455,0.0265,0.102,-0.024
0.909,-0.0355,0.0355,0.0715,-0.0005,-0.0535,0.053,-0.0725,-0.1665,-0.2275,-0.0925,-0.001,-0.055,0.0225,0.1085,-0.0245
0.91,-0.045,0.031,0.076,0.0065,-0.06,0.053,-0.0685,-0.1675,-0.2275,-0.0905,0.0,-0.0565,0.0185,0.11,-0.0225
0.911,-0.0355,0.0245,0.06,0.005,-0.0475,0.042,-0.0655,-0.165,-0.227,-0.0895,0.002,-0.0545,0.0185,0.1005,-0.0255
0.912,-0.0555,0.0175,0.0725,0.0185,-0.0635,0.0445,-0.0605,-0.167,-0.2275,-0.089,0.0025,-0.054,0.014,0.0905,-0.033
0.913,-0.0685,0.02,0.088,0.024,-0.078,0.0535,-0.051,-0.1575,-0.2205,-0.083,0.006,-0.0495,0.0115,0.0915,-0.037
0.914,-0.056,0.0225,0.0785,0.0165,-0.067,0.05,-0.053,-0.155,-0.223,-0.0845,0.0035,-0.0535,0.011,0.09,-0.04
0.915,-0.0515,0.009,0.0605,0.021,-0.0555,0.0345,-0.0565,-0.16,-0.2295,-0.09,-0.0005,-0.0575,0.01,0.091,-0.043
0.916,-0.053,0.0125,0.066,0.02,-0.0595,0.0385,-0.059,-0.163,-0.233,-0.094,-0.0055,-0.063,0.008,0.0965,-0.0445
0.917,-0.0645,0.0135,0.0775,0.025,-0.071,0.045,-0.0595,-0.164,-0.233,-0.0965,-0.0055,-0.062,0.008,0.106,-0.0425
0.918,-0.076,0.0115,0.087,0.032,-0.0815,0.0485,-0.056,-0.1625,-0.2295,-0.0965,-0.004,-0.0615,0.007,0.103,-0.047
0.919,-0.079,0.0165,0.0955,0.0315,-0.087,0.0555,-0.0565,-0.1645,-0.23,-0.098,-0.007,-0.0655,0.005,0.0945,-0.0535
0.92,-0.0805,0.0075,0.088,0.036,-0.084,0.0475,-0.059,-0.1655,-0.232,-0.102,-0.0095,-0.0665,0.005,0.092,-0.056
0.921,-0.074,0.0075,0.0815,0.033,-0.0775,0.044,-0.0605,-0.168,-0.2345,-0.1055,-0.0125,-0.07,0.0055,0.095,-0.054
0.922,-0.0565,0.023,0.0795,0.0165,-0.068,0.051,-0.0615,-0.1725,-0.237,-0.1065,-0.014,-0.0715,0.0055,0.1005,-0.0545
0.923,-0.0375,0.0305,0.0685,0.003,-0.053,0.049,-0.0595,-0.171,-0.237,-0.1055,-0.014,-0.072,0.004,0.0965,-0.0595
0.924,-0.0535,0.0225,0.0755,0.0155,-0.0645,0.0485,-0.0525,-0.1615,-0.233,-0.1,-0.0085,-0.0665,0.0045,0.088,-0.0585
0.925,-0.0765,0.0225,0.099,0.0265,-0.0875,0.06,-0.043,-0.151,-0.223,-0.0925,-0.0005,-0.0575,0.0055,0.085,-0.0525
0.926,-0.079,0.0255,0.1045,0.027,-0.0915,0.0645,-0.0375,-0.146,-0.2185,-0.0875,0.005,-0.052,0.0035,0.0835,-0.0475
0.927,-0.1045,0.001,0.1055,0.0515,-0.1045,0.0525,-0.04,-0.1495,-0.226,-0.094,-0.0005,-0.0565,0.0015,0.072,-0.0415
0.928,-0.093,-0.0105,0.0825,0.0515,-0.0875,0.0355,-0.0555,-0.1655,-0.2415,-0.1085,-0.0165,-0.0735,0.0025,0.0615,-0.0455
0.929,-0.0565,-0.0045,0.052,0.0305,-0.054,0.0235,-0.0665,-0.1785,-0.2525,-0.1195,-0.0275,-0.086,0.0015,0.0635,-0.048
0.93,-0.0525,-0.0065,0.046,0.029,-0.049,0.0195,-0.0625,-0.174,-0.2485,-0.1185,-0.024,-0.0825,-0.0015,0.0605,-0.0425
0.931,-0.0775,-0.002,0.0755,0.0395,-0.0765,0.0365,-0.0435,-0.153,-0.229,-0.0975,-0.002,-0.061,0.001,0.0555,-0.0445
0.932,-0.083,-0.0005,0.0825,0.0415,-0.0825,0.0405,-0.029,-0.1425,-0.2175,-0.0865,0.0085,-0.0505,0.0025,0.0595,-0.041
0.933,-0.0675,0.0055,0.073,0.0305,-0.07,0.0385,-0.0325,-0.1445,-0.2185,-0.0875,0.006,-0.0525,0.003,0.0745,-0.0465
0.934,-0.0895,0.0035,0.0935,0.043,-0.091,0.048,-0.0325,-0.144,-0.218,-0.087,0.005,-0.0545,0.0025,0.0765,-0.058
0.935,-0.09,-0.008,0.0825,0.0485,-0.086,0.037,-0.0425,-0.158,-0.2275,-0.098,-0.006,-0.0655,0.001,0.059,-0.065
0.936,-0.061,0.0015,0.0625,0.0295,-0.0615,0.0315,-0.051,-0.1675,-0.237,-0.1065,-0.0135,-0.0725,0.0025,0.0675,-0.0715
0.937,-0.041,0.0045,0.045,0.018,-0.0425,0.024,-0.0525,-0.1695,-0.2385,-0.109,-0.0165,-0.0765,0.0025,0.079,-0.0645
0.938,-0.05,-0.002,0.048,0.0255,-0.0485,0.0225,-0.0505,-0.168,-0.2375,-0.1085,-0.0165,-0.074,0.0045,0.0725,-0.058
0.939,-0.069,-0.01,0.0585,0.039,-0.0635,0.024,-0.0455,-0.1615,-0.2325,-0.104,-0.0115,-0.0695,0.0025,0.0625,-0.059
0.94,-0.068,-0.011,0.0575,0.039,-0.0625,0.023,-0.0485,-0.1645,-0.234,-0.107,-0.014,-0.073,-0.002,0.061,-0.0625
0.941,-0.058,-0.004,0.054,0.0305,-0.0555,0.025,-0.052,-0.167,-0.2385,-0.108,-0.016,-0.0735,-0.0005,0.07,-0.062
0.942,-0.051,-0.008,0.043,0.029,-0.047,0.017,-0.056,-0.167,-0.2395,-0.1085,-0.0165,-0.073,-0.001,0.065,-0.052
0.943,-0.0635,-0.0205,0.0425,0.0415,-0.0525,0.011,-0.0565,-0.167,-0.2405,-0.108,-0.0155,-0.072,-0.0025,0.0655,-0.046
0.944,-0.0745,-0.027,0.0475,0.0505,-0.0605,0.01,-0.0555,-0.166,-0.2395,-0.1055,-0.0135,-0.07,-0.0025,0.072,-0.043
0.945,-0.078,-0.018,0.0605,0.048,-0.069,0.0205,-0.0535,-0.164,-0.2375,-0.103,-0.0095,-0.067,-0.002,0.0755,-0.0375
0.946,-0.0775,-0.0065,0.0715,0.042,-0.0745,0.032,-0.0515,-0.1635,-0.2375,-0.101,-0.004,-0.0625,0.0005,0.0855,-0.0325
0.947,-0.0685,0.0025,0.071,0.033,-0.0695,0.036,-0.049,-0.1625,-0.235,-0.098,-0.003,-0.0605,0.0025,0.0845,-0.028
0.948,-0.0595,0.001,0.0605,0.029,-0.06,0.0305,-0.048,-0.159,-0.233,-0.0955,-0.0005,-0.059,0.0055,0.078,-0.028
0.949,-0.048,0.009,0.057,0.019,-0.052,0.0325,-0.054,-0.167,-0.2395,-0.0995,-0.0025,-0.062,0.007,0.0825,-0.041
0.95,-0.0555,0.0085,0.0635,0.0235,-0.059,0.0355,-0.0485,-0.164,-0.237,-0.0955,-0.0005,-0.0605,0.004,0.0795,-0.044
0.951,-0.0905,0.003,0.0935,0.0435,-0.092,0.048,-0.033,-0.1465,-0.2225,-0.081,0.016,-0.0475,0.0035,0.078,-0.0455
0.952,-0.105,0.0115,0.1165,0.0465,-0.1105,0.0635,-0.0305,-0.143,-0.2195,-0.079,0.019,-0.0455,0.0065,0.083,-0.0545
0.953,-0.077,0.0055,0.0825,0.0355,-0.0795,0.0435,-0.0445,-0.1605,-0.234,-0.095,0.0025,-0.0605,0.0075,0.0795,-0.055
0.954,-0.038,-0.005,0.033,0.021,-0.035,0.0135,-0.0555,-0.175,-0.2455,-0.1065,-0.009,-0.0705,0.0065,0.077,-0.055
0.955,-0.032,0.0075,0.0395,0.012,-0.0355,0.023,-0.0625,-0.1745,-0.2465,-0.1115,-0.014,-0.0745,0.006,0.082,-0.0545
0.956,-0.0495,0.017,0.066,0.016,-0.0575,0.041,-0.0635,-0.1755,-0.2475,-0.1135,-0.0155,-0.078,0.004,0.083,-0.06
0.957,-0.0695,-0.0125,0.057,0.0405,-0.063,0.022,-0.05,-0.1685,-0.2375,-0.1035,-0.0045,-0.0685,0.0025,0.072,-0.0555
0.958,-0.0905,-0.0185,0.0715,0.0545,-0.0805,0.026,-0.04,-0.159,-0.2305,-0.0965,0.0015,-0.06,0.0015,0.066,-0.0495
0.959,-0.1015,-0.0185,0.0835,0.06,-0.0925,0.032,-0.038,-0.146,-0.227,-0.0935,0.0005,-0.0615,0.0005,0.0615,-0.053
0.96,-0.088,-0.024,0.0635,0.056,-0.0755,0.019,-0.0355,-0.1405,-0.227,-0.096,-0.003,-0.0655,0.001,0.045,-0.0575
0.961,-0.091,-0.0265,0.0645,0.0585,-0.0775,0.0185,-0.032,-0.142,-0.232,-0.1025,-0.0085,-0.0705,0.0015,0.044,-0.0605
0.962,-0.102,-0.0295,0.073,0.0655,-0.0875,0.0215,-0.037,-0.144,-0.2405,-0.1115,-0.017,-0.0815,0.0035,0.0575,-0.0565
0.963,-0.0655,-0.0095,0.0565,0.0375,-0.061,0.023,-0.031,-0.1415,-0.2435,-0.1185,-0.027,-0.09,-0.0005,0.054,-0.053
0.964,-0.046,-0.0085,0.0375,0.027,-0.0415,0.014,-0.01,-0.116,-0.235,-0.118,-0.0305,-0.092,-0.0095,0.036,-0.0465
0.965,-0.03,-0.0405,-0.0105,0.035,-0.0095,-0.0255,-0.008,-0.1045,-0.243,-0.1345,-0.051,-0.1145,-0.013,0.0225,-0.039
0.966,-0.0115,-0.069,-0.0575,0.04,0.0235,-0.0635,-0.008,-0.099,-0.25,-0.15,-0.0735,-0.139,-0.0195,0.013,-0.0345
0.967,-0.008,-0.0545,-0.047,0.031,0.02,-0.0505,0.0165,-0.063,-0.225,-0.1345,-0.067,-0.1365,-0.0255,0.0055,-0.0435
0.968,-0.0175,-0.056,-0.0385,0.0365,0.011,-0.0475,0.049,-0.0195,-0.1955,-0.1215,-0.0635,-0.139,-0.032,-0.004,-0.053
0.969,-0.03,-0.07,-0.0395,0.05,0.005,-0.0545,0.0745,0.0145,-0.1755,-0.1135,-0.065,-0.1455,-0.0415,-0.0115,-0.0635
0.97,-0.0355,-0.071,-0.036,0.053,0.0005,-0.0535,0.0985,0.0505,-0.1485,-0.0985,-0.063,-0.1475,-0.0465,-0.019,-0.075
0.971,-0.0365,-0.0875,-0.051,0.062,0.0075,-0.0695,0.1115,0.078,-0.1255,-0.089,-0.065,-0.1565,-0.046,-0.0335,-0.084
0.972,-0.032,-0.091,-0.059,0.0615,0.014,-0.0755,0.127,0.1105,-0.0945,-0.0685,-0.0565,-0.154,-0.0425,-0.037,-0.102
0.973,-0.0375,-0.101,-0.0635,0.069,0.013,-0.082,0.1495,0.1485,-0.063,-0.048,-0.0465,-0.1485,-0.0455,-0.036,-0.11
0.974,-0.051,-0.1135,-0.063,0.082,0.006,-0.088,0.1725,0.179,-0.0325,-0.027,-0.0355,-0.144,-0.0465,-0.041,-0.1125
0.975,-0.0805,-0.1195,-0.039,0.0995,-0.0205,-0.0795,0.1785,0.2045,0.001,-0.0015,-0.0205,-0.1375,-0.036,-0.038,-0.1195
0.976,-0.0825,-0.1195,-0.037,0.101,-0.0225,-0.0785,0.167,0.2235,0.0215,0.0145,-0.0155,-0.139,-0.0225,-0.0375,-0.1255
0.977,-0.0625,-0.1095,-0.0475,0.0855,-0.007,-0.0785,0.168,0.2575,0.0555,0.036,-0.009,-0.1425,-0.0105,-0.035,-0.1385
0.978,-0.024,-0.0945,-0.0705,0.059,0.0235,-0.0825,0.1735,0.3045,0.1015,0.0695,0.006,-0.14,0.0015,-0.0315,-0.1565
0.979,0.0055,-0.08,-0.085,0.037,0.0455,-0.0825,0.193,0.3645,0.161,0.1155,0.031,-0.1275,0.015,-0.0395,-0.1715
0.98,0.008,-0.069,-0.077,0.03,0.043,-0.073,0.2095,0.425,0.2205,0.1635,0.0615,-0.109,0.0345,-0.0385,-0.1825
0.981,0.022,-0.0545,-0.0765,0.0165,0.0495,-0.0655,0.2155,0.4755,0.278,0.2185,0.099,-0.085,0.058,-0.0345,-0.198
0.982,0.0285,-0.0395,-0.068,0.0055,0.0485,-0.054,0.226,0.5345,0.3575,0.293,0.152,-0.0485,0.089,-0.032,-0.2175
0.983,0.0475,-0.0215,-0.069,-0.0135,0.0585,-0.045,0.222,0.5655,0.414,0.354,0.1985,-0.0155,0.123,-0.031,-0.2335
0.984,0.0935,0.01,-0.084,-0.052,0.089,-0.037,0.1975,0.556,0.4475,0.4025,0.2375,0.0115,0.1595,-0.0225,-0.244
0.985,0.1305,0.0295,-0.101,-0.08,0.116,-0.0355,0.17,0.543,0.4935,0.4565,0.274,0.033,0.194,-0.008,-0.2585
0.986,0.16,0.04,-0.1195,-0.1005,0.14,-0.04,0.1465,0.5275,0.5405,0.513,0.3125,0.055,0.225,0.0005,-0.2745
0.987,0.19,0.066,-0.124,-0.128,0.1575,-0.029,0.1255,0.526,0.602,0.587,0.3685,0.094,0.266,0.026,-0.283
0.988,0.2115,0.1025,-0.109,-0.157,0.1605,-0.0035,0.096,0.513,0.6635,0.6645,0.43,0.1385,0.31,0.0565,-0.2915
0.989,0.2175,0.14,-0.0775,-0.179,0.148,0.031,0.0565,0.482,0.714,0.7455,0.504,0.199,0.362,0.0875,-0.295
0.99,0.222,0.1575,-0.0645,-0.19,0.1435,0.046,0.035,0.4775,0.7725,0.8225,0.572,0.2525,0.408,0.121,-0.2935
0.991,0.249,0.1855,-0.0635,-0.2175,0.1565,0.0605,0.0065,0.461,0.8225,0.8885,0.63,0.2975,0.4535,0.1545,-0.296
0.992,0.261,0.225,-0.036,-0.243,0.1485,0.094,-0.0215,0.431,0.8715,0.9665,0.703,0.357,0.5025,0.192,-0.3065
0.993,0.2595,0.253,-0.0065,-0.2565,0.1335,0.1225,-0.038,0.4055,0.93,1.0505,0.7735,0.41,0.543,0.2225,-0.3255
0.994,0.2715,0.304,0.0325,-0.288,0.1195,0.168,-0.0525,0.383,1.0055,1.153,0.863,0.484,0.5965,0.27,-0.3455
0.995,0.274,0.365,0.091,-0.32,0.092,0.2275,-0.081,0.3525,1.08,1.2655,0.9695,0.5735,0.657,0.3265,-0.36
0.996,0.2725,0.414,0.141,-0.3435,0.066,0.277,-0.129,0.303,1.123,1.347,1.0495,0.6405,0.708,0.3755,-0.3695
0.997,0.2645,0.463,0.1985,-0.364,0.0335,0.33,-0.1775,0.2285,1.152,1.42,1.117,0.695,0.7525,0.425,-0.385
0.998,0.254,0.505,0.251,-0.3795,0.0015,0.3775,-0.217,0.151,1.185,1.498,1.184,0.7455,0.796,0.477,-0.4025
0.999,0.236,0.543,0.307,-0.39,-0.035,0.4245,-0.224,0.1165,1.242,1.5845,1.2515,0.7965,0.83,0.5295,-0.422
1.0,0.233,0.5885,0.3555,-0.411,-0.061,0.4715,-0.231,0.0865,1.297,1.666,1.316,0.8465,0.8615,0.567,-0.442
1.001,0.2615,0.6235,0.362,-0.4425,-0.05,0.4925,-0.243,0.049,1.3235,1.711,1.353,0.875,0.8885,0.599,-0.4535
1.002,0.2535,0.642,0.3885,-0.448,-0.0675,0.5145,-0.2505,0.017,1.319,1.722,1.3705,0.8955,0.8985,0.618,-0.453
1.003,0.23,0.6505,0.42,-0.4405,-0.095,0.535,-0.262,-0.0315,1.2755,1.703,1.3785,0.9125,0.897,0.6335,-0.443
1.004,0.2095,0.66,0.4505,-0.435,-0.1205,0.5545,-0.2665,-0.0925,1.2065,1.655,1.3715,0.9275,0.886,0.66,-0.416
1.005,0.176,0.6815,0.5055,-0.429,-0.1645,0.593,-0.279,-0.1455,1.133,1.5945,1.36,0.943,0.8725,0.683,-0.3835
1.006,0.158,0.6915,0.5335,-0.425,-0.1875,0.612,-0.2995,-0.1865,1.075,1.5355,1.333,0.939,0.857,0.695,-0.3625
1.007,0.172,0.68,0.5085,-0.426,-0.168,0.5935,-0.3295,-0.247,0.984,1.442,1.277,0.909,0.828,0.6885,-0.334
1.008,0.1905,0.663,0.4725,-0.427,-0.141,0.567,-0.364,-0.3065,0.8775,1.3295,1.2085,0.8675,0.7995,0.681,-0.306
1.009,0.169,0.64,0.471,-0.4045,-0.151,0.555,-0.3525,-0.3205,0.7995,1.2305,1.137,0.825,0.7585,0.67,-0.279
1.01,0.1525,0.6175,0.465,-0.3855,-0.156,0.541,-0.3375,-0.3305,0.722,1.133,1.0705,0.7845,0.7165,0.652,-0.2385
1.011,0.147,0.5775,0.43,-0.3625,-0.1415,0.503,-0.351,-0.362,0.6185,1.019,0.997,0.7405,0.679,0.6205,-0.1885
1.012,0.1315,0.5405,0.409,-0.3365,-0.1385,0.4745,-0.368,-0.407,0.503,0.8945,0.914,0.688,0.632,0.589,-0.1485
1.013,0.1225,0.5125,0.39,-0.3175,-0.1335,0.4505,-0.388,-0.453,0.4025,0.794,0.8455,0.6455,0.59,0.565,-0.115
1.014,0.097,0.4485,0.3515,-0.273,-0.127,0.3995,-0.3705,-0.4825,0.2845,0.6745,0.762,0.5945,0.5275,0.52,-0.078
1.015,0.071,0.407,0.336,-0.2395,-0.132,0.371,-0.3475,-0.525,0.13,0.518,0.6505,0.52,0.4535,0.484,-0.0485
1.016,0.044,0.3835,0.34,-0.214,-0.1475,0.361,-0.346,-0.5845,-0.031,0.3635,0.5415,0.4495,0.388,0.459,-0.0185
1.017,0.011,0.348,0.3375,-0.1795,-0.163,0.3425,-0.3335,-0.6325,-0.183,0.2215,0.448,0.391,0.3235,0.4425,0.013
1.018,-0.043,0.322,0.3645,-0.14,-0.2035,0.343,-0.3065,-0.6665,-0.319,0.0895,0.361,0.3375,0.255,0.435,0.0445
1.019,-0.1035,0.2855,0.3885,-0.0915,-0.2455,0.3365,-0.2785,-0.706,-0.4605,-0.0485,0.269,0.28,0.184,0.4095,0.0805
1.02,-0.1115,0.249,0.3605,-0.069,-0.236,0.3045,-0.268,-0.759,-0.601,-0.1825,0.1735,0.214,0.1215,0.3805,0.113
1.021,-0.127,0.207,0.334,-0.04,-0.2305,0.27,-0.2645,-0.7905,-0.6765,-0.2655,0.1015,0.157,0.0735,0.3425,0.137
1.022,-0.146,0.1725,0.3185,-0.0135,-0.232,0.245,-0.2535,-0.791,-0.7005,-0.3045,0.058,0.1195,0.0415,0.316,0.145
1.023,-0.131,0.157,0.288,-0.013,-0.209,0.222,-0.249,-0.793,-0.724,-0.338,0.023,0.0885,0.0185,0.308,0.1505
1.024,-0.131,0.1385,0.2695,-0.004,-0.2,0.2035,-0.236,-0.7735,-0.725,-0.3505,0.003,0.066,0.0045,0.289,0.1585
1.025,-0.1275,0.1305,0.2585,-0.002,-0.1925,0.194,-0.2295,-0.746,-0.7095,-0.3485,-0.006,0.054,0.001,0.275,0.164
1.026,-0.1205,0.126,0.247,-0.003,-0.1835,0.186,-0.229,-0.724,-0.693,-0.343,-0.014,0.044,-0.005,0.2635,0.165
1.027,-0.1415,0.123,0.2645,0.009,-0.2025,0.1935,-0.211,-0.688,-0.664,-0.3255,-0.009,0.0445,-0.0175,0.246,0.1665
1.028,-0.164,0.0955,0.26,0.034,-0.2115,0.177,-0.2115,-0.6715,-0.6535,-0.328,-0.0195,0.031,-0.025,0.2165,0.174
1.029,-0.1695,0.054,0.2235,0.0575,-0.196,0.138,-0.2185,-0.6665,-0.662,-0.3465,-0.0485,0.0,-0.0325,0.1845,0.174
1.03,-0.1675,0.038,0.205,0.0645,-0.186,0.121,-0.2215,-0.6635,-0.667,-0.359,-0.068,-0.0215,-0.042,0.172,0.171
1.031,-0.1695,0.015,0.1845,0.077,-0.177,0.0995,-0.2195,-0.654,-0.6665,-0.3705,-0.088,-0.043,-0.0545,0.1615,0.169
1.032,-0.17,-0.007,0.163,0.0885,-0.166,0.0775,-0.2005,-0.63,-0.6565,-0.373,-0.102,-0.0625,-0.0665,0.15,0.1595
1.033,-0.1605,-0.008,0.1525,0.084,-0.156,0.072,-0.1805,-0.6145,-0.6525,-0.378,-0.114,-0.079,-0.0765,0.138,0.1535
1.034,-0.1585,-0.015,0.144,0.0865,-0.151,0.064,-0.1675,-0.604,-0.6465,-0.381,-0.123,-0.089,-0.088,0.1295,0.1475
1.035,-0.1625,-0.024,0.1385,0.093,-0.1505,0.0565,-0.1535,-0.596,-0.643,-0.385,-0.1325,-0.102,-0.1005,0.12,0.138
1.036,-0.162,-0.0245,0.1375,0.093,-0.1495,0.056,-0.142,-0.5885,-0.6445,-0.3925,-0.1475,-0.1225,-0.114,0.118,0.133
1.037,-0.1795,-0.0275,0.152,0.103,-0.1655,0.0615,-0.1345,-0.5745,-0.6275,-0.384,-0.1475,-0.1275,-0.1205,0.1175,0.123
1.038,-0.1955,-0.0215,0.1735,0.108,-0.184,0.0755,-0.122,-0.5455,-0.607,-0.37,-0.142,-0.122,-0.1195,0.1195,0.104
1.039,-0.1935,-0.0125,0.1815,0.103,-0.187,0.084,-0.1115,-0.509,-0.586,-0.357,-0.135,-0.1195,-0.1185,0.1255,0.0825
1.04,-0.1695,-0.015,0.155,0.092,-0.162,0.0695,-0.112,-0.496,-0.5745,-0.3515,-0.136,-0.1255,-0.1165,0.1035,0.061
1.041,-0.146,-0.0165,0.1295,0.081,-0.1375,0.056,-0.118,-0.4825,-0.5615,-0.345,-0.136,-0.1285,-0.111,0.1005,0.0495
1.042,-0.141,-0.0195,0.1215,0.08,-0.131,0.0505,-0.125,-0.459,-0.5425,-0.332,-0.13,-0.128,-0.104,0.1005,0.0415
1.043,-0.168,-0.0265,0.1415,0.097,-0.155,0.057,-0.122,-0.4305,-0.519,-0.3145,-0.1185,-0.119,-0.1,0.0885,0.043
1.044,-0.2015,-0.019,0.1825,0.11,-0.192,0.0815,-0.106,-0.3985,-0.487,-0.2885,-0.0985,-0.1045,-0.0985,0.1025,0.041
1.045,-0.1845,-0.0185,0.1665,0.1015,-0.1755,0.0735,-0.0955,-0.3705,-0.4645,-0.2715,-0.09,-0.101,-0.093,0.0935,0.035
1.046,-0.158,-0.031,0.1275,0.0945,-0.1425,0.0475,-0.0905,-0.3475,-0.4485,-0.2615,-0.0875,-0.1045,-0.089,0.0855,0.035
1.047,-0.106,-0.0235,0.0825,0.0645,-0.094,0.029,-0.097,-0.339,-0.444,-0.261,-0.0935,-0.1155,-0.0835,0.0945,0.026
1.048,-0.078,-0.0155,0.0625,0.0465,-0.07,0.023,-0.0985,-0.3235,-0.4335,-0.2565,-0.0935,-0.117,-0.0765,0.0895,0.024
1.049,-0.0705,-0.0125,0.058,0.0415,-0.064,0.022,-0.0885,-0.302,-0.4145,-0.244,-0.0875,-0.1145,-0.072,0.097,0.021
1.05,-0.0605,-0.021,0.0395,0.0405,-0.05,0.009,-0.08,-0.2815,-0.3955,-0.2305,-0.079,-0.1105,-0.0655,0.091,0.0235
1.051,-0.0735,-0.028,0.0455,0.051,-0.0595,0.0085,-0.0735,-0.2635,-0.378,-0.217,-0.0705,-0.103,-0.058,0.073,0.0325
1.052,-0.073,-0.019,0.0535,0.0455,-0.063,0.017,-0.069,-0.2515,-0.364,-0.208,-0.066,-0.0995,-0.0515,0.079,0.024
1.053,-0.0815,-0.002,0.0795,0.0415,-0.08,0.038,-0.058,-0.2315,-0.345,-0.1945,-0.056,-0.093,-0.047,0.0865,0.014
1.054,-0.079,0.0145,0.093,0.032,-0.0855,0.053,-0.045,-0.2075,-0.323,-0.1785,-0.0425,-0.082,-0.0415,0.0985,0.007
1.055,-0.088,-0.002,0.086,0.0445,-0.0865,0.042,-0.0385,-0.2045,-0.3115,-0.1705,-0.0375,-0.08,-0.0375,0.0905,0.0
1.056,-0.104,-0.02,0.084,0.062,-0.0935,0.0315,-0.0425,-0.2095,-0.3135,-0.176,-0.0465,-0.0885,-0.033,0.0765,-0.0025
1.057,-0.091,-0.019,0.0715,0.0545,-0.081,0.0255,-0.0415,-0.189,-0.305,-0.1725,-0.0455,-0.0885,-0.0305,0.083,-0.0115
1.058,-0.0725,-0.007,0.0655,0.0395,-0.0685,0.0285,-0.042,-0.1825,-0.297,-0.167,-0.042,-0.089,-0.0305,0.0905,-0.0235
1.059,-0.0615,0.008,0.069,0.0265,-0.065,0.038,-0.038,-0.1805,-0.2905,-0.161,-0.033,-0.079,-0.0265,0.1095,-0.022
1.06,-0.0785,0.0045,0.083,0.0365,-0.0805,0.0435,-0.031,-0.172,-0.281,-0.152,-0.022,-0.069,-0.023,0.11,-0.0315
1.061,-0.087,0.015,0.102,0.036,-0.094,0.058,-0.0295,-0.1685,-0.277,-0.1475,-0.021,-0.0695,-0.0245,0.098,-0.038
1.062,-0.103,0.0015,0.1045,0.0505,-0.1035,0.0525,-0.037,-0.1725,-0.285,-0.1535,-0.0295,-0.077,-0.024,0.098,-0.031
