I,II,III,aVR,aVL,aVF,V1,V2,V3,V4,V5,V6
0.117,0.195,0.078,-0.156,0.02,0.137,-0.166,-0.146,0.039,0.4,0.488,0.166
0.117,0.195,0.078,-0.156,0.02,0.137,-0.166,-0.146,0.039,0.4,0.488,0.166
0.117,0.195,0.078,-0.156,0.02,0.137,-0.166,-0.146,0.039,0.4,0.488,0.166
0.117,0.195,0.078,-0.156,0.02,0.137,-0.166,-0.146,0.039,0.4,0.488,0.166
0.117,0.195,0.078,-0.156,0.02,0.137,-0.176,-0.142,0.049,0.386,0.473,0.161
0.117,0.195,0.078,-0.156,0.02,0.137,-0.176,-0.137,0.049,0.381,0.468,0.156
0.117,0.195,0.078,-0.156,0.02,0.137,-0.176,-0.132,0.049,0.376,0.464,0.151
0.117,0.195,0.078,-0.156,0.02,0.137,-0.176,-0.127,0.049,0.371,0.459,0.146
0.107,0.181,0.073,-0.142,0.015,0.127,-0.19,-0.142,0.049,0.351,0.434,0.132
0.107,0.176,0.068,-0.142,0.02,0.122,-0.195,-0.146,0.049,0.332,0.42,0.117
0.107,0.171,0.063,-0.137,0.02,0.117,-0.2,-0.151,0.049,0.312,0.405,0.102
0.107,0.166,0.059,-0.137,0.024,0.112,-0.205,-0.156,0.049,0.293,0.39,0.088
0.098,0.146,0.049,-0.122,0.024,0.098,-0.215,-0.156,0.044,0.268,0.376,0.068
0.088,0.137,0.049,-0.112,0.02,0.093,-0.215,-0.156,0.039,0.254,0.361,0.059
0.078,0.127,0.049,-0.102,0.015,0.088,-0.215,-0.156,0.034,0.239,0.346,0.049
0.068,0.117,0.049,-0.093,0.01,0.083,-0.215,-0.156,0.029,0.224,0.332,0.039
0.063,0.102,0.039,-0.083,0.01,0.068,-0.2,-0.146,0.034,0.205,0.312,0.024
0.059,0.098,0.039,-0.078,0.01,0.068,-0.185,-0.137,0.039,0.195,0.303,0.02
0.054,0.093,0.039,-0.073,0.005,0.063,-0.171,-0.127,0.044,0.185,0.293,0.015
0.049,0.088,0.039,-0.068,0.005,0.063,-0.156,-0.117,0.049,0.176,0.283,0.01
0.039,0.083,0.044,-0.059,-0.005,0.063,-0.137,-0.098,0.059,0.166,0.264,-0.005
0.039,0.078,0.039,-0.059,0.0,0.059,-0.127,-0.088,0.059,0.156,0.254,-0.01
0.039,0.073,0.034,-0.054,0.0,0.054,-0.117,-0.078,0.059,0.146,0.244,-0.015
0.039,0.068,0.029,-0.054,0.005,0.049,-0.107,-0.068,0.059,0.137,0.234,-0.02
0.029,0.054,0.024,-0.039,0.0,0.039,-0.098,-0.059,0.049,0.122,0.215,-0.029
0.029,0.049,0.02,-0.039,0.005,0.034,-0.088,-0.059,0.049,0.107,0.205,-0.039
0.029,0.044,0.015,-0.034,0.005,0.029,-0.078,-0.059,0.049,0.093,0.195,-0.049
0.029,0.039,0.01,-0.034,0.01,0.024,-0.068,-0.059,0.049,0.078,0.185,-0.059
0.029,0.039,0.01,-0.034,0.01,0.024,-0.049,-0.049,0.039,0.068,0.166,-0.078
0.029,0.039,0.01,-0.034,0.01,0.024,-0.039,-0.039,0.039,0.059,0.156,-0.088
0.029,0.039,0.01,-0.034,0.01,0.024,-0.029,-0.029,0.039,0.049,0.146,-0.098
0.029,0.039,0.01,-0.034,0.01,0.024,-0.02,-0.02,0.039,0.039,0.137,-0.107
0.015,0.029,0.015,-0.02,0.0,0.02,-0.01,-0.02,0.029,0.024,0.132,-0.117
0.01,0.02,0.01,-0.015,0.0,0.015,0.0,-0.02,0.029,0.02,0.127,-0.117
0.005,0.01,0.005,-0.005,0.0,0.005,0.01,-0.02,0.029,0.015,0.122,-0.117
0.0,0.0,0.0,0.0,0.0,0.0,0.02,-0.02,0.029,0.01,0.117,-0.117
-0.01,-0.005,0.005,0.01,-0.01,0.0,0.029,-0.01,0.02,0.0,0.112,-0.122
-0.01,-0.01,0.0,0.01,-0.005,-0.005,0.039,-0.01,0.02,-0.01,0.107,-0.127
-0.01,-0.015,-0.005,0.015,-0.005,-0.01,0.049,-0.01,0.02,-0.02,0.102,-0.132
-0.01,-0.02,-0.01,0.015,0.0,-0.015,0.059,-0.01,0.02,-0.029,0.098,-0.137
-0.005,-0.029,-0.024,0.02,0.01,-0.029,0.063,0.0,0.015,-0.039,0.093,-0.142
0.0,-0.029,-0.029,0.015,0.015,-0.029,0.068,0.0,0.01,-0.039,0.088,-0.146
0.005,-0.029,-0.034,0.015,0.02,-0.034,0.073,0.0,0.005,-0.039,0.083,-0.151
0.01,-0.029,-0.039,0.01,0.024,-0.034,0.078,0.0,0.0,-0.039,0.078,-0.156
0.0,-0.029,-0.029,0.015,0.015,-0.029,0.083,0.0,-0.01,-0.044,0.068,-0.156
0.0,-0.029,-0.029,0.015,0.015,-0.029,0.088,0.0,-0.01,-0.049,0.068,-0.156
0.0,-0.029,-0.029,0.015,0.015,-0.029,0.093,0.0,-0.01,-0.054,0.068,-0.156
0.0,-0.029,-0.029,0.015,0.015,-0.029,0.098,0.0,-0.01,-0.059,0.068,-0.156
-0.005,-0.02,-0.015,0.015,0.005,-0.02,0.102,0.01,-0.01,-0.068,0.063,-0.161
-0.01,-0.02,-0.01,0.015,0.0,-0.015,0.107,0.01,-0.01,-0.068,0.059,-0.166
-0.015,-0.02,-0.005,0.02,-0.005,-0.015,0.112,0.01,-0.01,-0.068,0.054,-0.171
-0.02,-0.02,0.0,0.02,-0.01,-0.01,0.117,0.01,-0.01,-0.068,0.049,-0.176
-0.02,-0.024,-0.005,0.024,-0.01,-0.015,0.122,0.015,-0.01,-0.068,0.059,-0.185
-0.02,-0.029,-0.01,0.024,-0.005,-0.02,0.127,0.02,-0.01,-0.068,0.059,-0.185
-0.02,-0.034,-0.015,0.029,-0.005,-0.024,0.132,0.024,-0.01,-0.068,0.059,-0.185
-0.02,-0.039,-0.02,0.029,0.0,-0.029,0.137,0.029,-0.01,-0.068,0.059,-0.185
-0.02,-0.039,-0.02,0.029,0.0,-0.029,0.146,0.039,0.0,-0.068,0.059,-0.181
-0.02,-0.039,-0.02,0.029,0.0,-0.029,0.146,0.039,0.0,-0.068,0.059,-0.176
-0.02,-0.039,-0.02,0.029,0.0,-0.029,0.146,0.039,0.0,-0.068,0.059,-0.171
-0.02,-0.039,-0.02,0.029,0.0,-0.029,0.146,0.039,0.0,-0.068,0.059,-0.166
-0.02,-0.029,-0.01,0.024,-0.005,-0.02,0.151,0.039,0.0,-0.059,0.059,-0.176
-0.02,-0.029,-0.01,0.024,-0.005,-0.02,0.156,0.039,0.0,-0.059,0.059,-0.176
-0.02,-0.029,-0.01,0.024,-0.005,-0.02,0.161,0.039,0.0,-0.059,0.059,-0.176
-0.02,-0.029,-0.01,0.024,-0.005,-0.02,0.166,0.039,0.0,-0.059,0.059,-0.176
-0.005,-0.024,-0.02,0.015,0.005,-0.024,0.176,0.049,0.01,-0.049,0.068,-0.176
0.0,-0.02,-0.02,0.01,0.01,-0.02,0.176,0.049,0.01,-0.049,0.068,-0.176
0.005,-0.015,-0.02,0.005,0.01,-0.02,0.176,0.049,0.01,-0.049,0.068,-0.176
0.01,-0.01,-0.02,0.0,0.015,-0.015,0.176,0.049,0.01,-0.049,0.068,-0.176
0.0,-0.02,-0.02,0.01,0.01,-0.02,0.176,0.049,0.01,-0.039,0.078,-0.166
0.0,-0.02,-0.02,0.01,0.01,-0.02,0.176,0.049,0.01,-0.039,0.078,-0.166
0.0,-0.02,-0.02,0.01,0.01,-0.02,0.176,0.049,0.01,-0.039,0.078,-0.166
0.0,-0.02,-0.02,0.01,0.01,-0.02,0.176,0.049,0.01,-0.039,0.078,-0.166
-0.015,-0.029,-0.015,0.024,0.0,-0.024,0.185,0.054,0.02,-0.029,0.088,-0.171
-0.02,-0.029,-0.01,0.024,-0.005,-0.02,0.185,0.059,0.02,-0.029,0.088,-0.176
-0.024,-0.029,-0.005,0.029,-0.01,-0.02,0.185,0.063,0.02,-0.029,0.088,-0.181
-0.029,-0.029,0.0,0.029,-0.015,-0.015,0.185,0.068,0.02,-0.029,0.088,-0.185
-0.02,-0.015,0.005,0.02,-0.015,-0.005,0.176,0.073,0.024,-0.02,0.093,-0.181
-0.01,-0.01,0.0,0.01,-0.005,-0.005,0.176,0.078,0.029,-0.01,0.098,-0.176
0.0,-0.005,-0.005,0.005,0.0,-0.005,0.176,0.083,0.034,0.0,0.102,-0.171
0.01,0.0,-0.01,-0.005,0.01,-0.005,0.176,0.088,0.039,0.01,0.107,-0.166
0.0,-0.01,-0.01,0.005,0.005,-0.01,0.156,0.098,0.054,0.015,0.122,-0.156
0.0,-0.01,-0.01,0.005,0.005,-0.01,0.146,0.098,0.059,0.02,0.127,-0.146
0.0,-0.01,-0.01,0.005,0.005,-0.01,0.137,0.098,0.063,0.024,0.132,-0.137
0.0,-0.01,-0.01,0.005,0.005,-0.01,0.127,0.098,0.068,0.029,0.137,-0.127
0.005,0.005,0.0,-0.005,0.0,0.0,0.102,0.088,0.068,0.039,0.146,-0.137
0.01,0.01,0.0,-0.01,0.005,0.005,0.078,0.088,0.068,0.039,0.146,-0.137
0.015,0.015,0.0,-0.015,0.005,0.005,0.054,0.088,0.068,0.039,0.146,-0.137
0.02,0.02,0.0,-0.02,0.01,0.01,0.029,0.088,0.068,0.039,0.146,-0.137
0.01,0.02,0.01,-0.015,0.0,0.015,0.01,0.073,0.059,0.029,0.146,-0.137
0.01,0.02,0.01,-0.015,0.0,0.015,0.0,0.059,0.049,0.029,0.146,-0.137
0.01,0.02,0.01,-0.015,0.0,0.015,-0.01,0.044,0.039,0.029,0.146,-0.137
0.01,0.02,0.01,-0.015,0.0,0.015,-0.02,0.029,0.029,0.029,0.146,-0.137
0.02,0.01,-0.01,-0.015,0.015,0.0,-0.02,0.02,0.02,0.039,0.156,-0.137
0.02,0.01,-0.01,-0.015,0.015,0.0,-0.02,0.01,0.02,0.039,0.156,-0.137
0.02,0.01,-0.01,-0.015,0.015,0.0,-0.02,0.0,0.02,0.039,0.156,-0.137
0.02,0.01,-0.01,-0.015,0.015,0.0,-0.02,-0.01,0.02,0.039,0.156,-0.137
0.02,0.02,0.0,-0.02,0.01,0.01,-0.01,-0.02,0.01,0.034,0.151,-0.146
0.02,0.02,0.0,-0.02,0.01,0.01,-0.01,-0.02,0.01,0.029,0.146,-0.146
0.02,0.02,0.0,-0.02,0.01,0.01,-0.01,-0.02,0.01,0.024,0.142,-0.146
0.02,0.02,0.0,-0.02,0.01,0.01,-0.01,-0.02,0.01,0.02,0.137,-0.146
0.015,0.01,-0.005,-0.01,0.01,0.0,0.0,-0.029,0.01,0.029,0.142,-0.142
0.01,0.01,0.0,-0.01,0.005,0.005,0.0,-0.029,0.01,0.029,0.146,-0.137
0.005,0.01,0.005,-0.005,0.0,0.005,0.0,-0.029,0.01,0.029,0.151,-0.132
0.0,0.01,0.01,-0.005,-0.005,0.01,0.0,-0.029,0.01,0.029,0.156,-0.127
0.01,0.015,0.005,-0.01,0.0,0.01,0.005,-0.02,0.02,0.039,0.146,-0.137
0.01,0.02,0.01,-0.015,0.0,0.015,0.01,-0.02,0.02,0.039,0.146,-0.137
0.01,0.024,0.015,-0.015,-0.005,0.02,0.015,-0.02,0.02,0.039,0.146,-0.137
0.01,0.029,0.02,-0.02,-0.005,0.024,0.02,-0.02,0.02,0.039,0.146,-0.137
0.02,0.02,0.0,-0.02,0.01,0.01,0.029,-0.02,0.01,0.029,0.137,-0.146
0.02,0.02,0.0,-0.02,0.01,0.01,0.029,-0.02,0.01,0.029,0.137,-0.146
0.02,0.02,0.0,-0.02,0.01,0.01,0.029,-0.02,0.01,0.029,0.137,-0.146
0.02,0.02,0.0,-0.02,0.01,0.01,0.029,-0.02,0.01,0.029,0.137,-0.146
0.015,0.02,0.005,-0.015,0.005,0.01,0.039,-0.01,0.01,0.02,0.146,-0.146
0.01,0.02,0.01,-0.015,0.0,0.015,0.049,-0.01,0.01,0.02,0.146,-0.146
0.005,0.02,0.015,-0.01,-0.005,0.015,0.059,-0.01,0.01,0.02,0.146,-0.146
0.0,0.02,0.02,-0.01,-0.01,0.02,0.068,-0.01,0.01,0.02,0.146,-0.146
0.005,0.02,0.015,-0.01,-0.005,0.015,0.078,0.0,0.0,0.01,0.142,-0.161
0.01,0.02,0.01,-0.015,0.0,0.015,0.078,0.0,0.0,0.01,0.137,-0.166
0.015,0.02,0.005,-0.015,0.005,0.01,0.078,0.0,0.0,0.01,0.132,-0.171
0.02,0.02,0.0,-0.02,0.01,0.01,0.078,0.0,0.0,0.01,0.127,-0.176
0.015,0.015,0.0,-0.015,0.005,0.005,0.088,0.005,0.01,0.02,0.127,-0.171
0.01,0.01,0.0,-0.01,0.005,0.005,0.098,0.01,0.01,0.02,0.127,-0.166
0.005,0.005,0.0,-0.005,0.0,0.0,0.107,0.015,0.01,0.02,0.127,-0.161
0.0,0.0,0.0,0.0,0.0,0.0,0.117,0.02,0.01,0.02,0.127,-0.156
-0.01,0.01,0.02,0.0,-0.015,0.015,0.117,0.01,0.0,0.015,0.112,-0.161
-0.01,0.01,0.02,0.0,-0.015,0.015,0.117,0.01,0.0,0.01,0.107,-0.166
-0.01,0.01,0.02,0.0,-0.015,0.015,0.117,0.01,0.0,0.005,0.102,-0.171
-0.01,0.01,0.02,0.0,-0.015,0.015,0.117,0.01,0.0,0.0,0.098,-0.176
-0.01,0.005,0.015,0.005,-0.015,0.01,0.117,0.0,-0.01,-0.01,0.088,-0.185
-0.01,0.0,0.01,0.005,-0.01,0.005,0.117,0.0,-0.01,-0.01,0.088,-0.185
-0.01,-0.005,0.005,0.01,-0.01,0.0,0.117,0.0,-0.01,-0.01,0.088,-0.185
-0.01,-0.01,0.0,0.01,-0.005,-0.005,0.117,0.0,-0.01,-0.01,0.088,-0.185
-0.005,0.005,0.01,0.0,-0.01,0.005,0.122,0.0,-0.015,-0.02,0.078,-0.195
0.0,0.01,0.01,-0.005,-0.005,0.01,0.127,0.0,-0.02,-0.02,0.078,-0.195
0.005,0.015,0.01,-0.01,-0.005,0.01,0.132,0.0,-0.024,-0.02,0.078,-0.195
0.01,0.02,0.01,-0.015,0.0,0.015,0.137,0.0,-0.029,-0.02,0.078,-0.195
0.0,0.015,0.015,-0.005,-0.01,0.015,0.146,0.01,-0.02,-0.02,0.078,-0.185
0.0,0.01,0.01,-0.005,-0.005,0.01,0.146,0.01,-0.02,-0.02,0.078,-0.185
0.0,0.005,0.005,0.0,-0.005,0.005,0.146,0.01,-0.02,-0.02,0.078,-0.185
0.0,0.0,0.0,0.0,0.0,0.0,0.146,0.01,-0.02,-0.02,0.078,-0.185
0.005,0.005,0.0,-0.005,0.0,0.0,0.161,0.015,-0.015,-0.01,0.083,-0.185
0.01,0.01,0.0,-0.01,0.005,0.005,0.166,0.02,-0.01,-0.01,0.088,-0.185
0.015,0.015,0.0,-0.015,0.005,0.005,0.171,0.024,-0.005,-0.01,0.093,-0.185
0.02,0.02,0.0,-0.02,0.01,0.01,0.176,0.029,0.0,-0.01,0.098,-0.185
0.01,0.015,0.005,-0.01,0.0,0.01,0.176,0.02,-0.005,-0.02,0.088,-0.19
0.0,0.01,0.01,-0.005,-0.005,0.01,0.176,0.02,-0.01,-0.02,0.088,-0.195
-0.01,0.005,0.015,0.005,-0.015,0.01,0.176,0.02,-0.015,-0.02,0.088,-0.2
-0.02,0.0,0.02,0.01,-0.02,0.01,0.176,0.02,-0.02,-0.02,0.088,-0.205
-0.015,0.01,0.024,0.005,-0.02,0.015,0.185,0.029,-0.01,-0.024,0.078,-0.21
-0.01,0.01,0.02,0.0,-0.015,0.015,0.185,0.029,-0.01,-0.029,0.078,-0.215
-0.005,0.01,0.015,0.0,-0.01,0.01,0.185,0.029,-0.01,-0.034,0.078,-0.22
0.0,0.01,0.01,-0.005,-0.005,0.01,0.185,0.029,-0.01,-0.039,0.078,-0.224
0.01,0.0,-0.01,-0.005,0.01,-0.005,0.195,0.039,-0.02,-0.039,0.088,-0.215
0.01,0.0,-0.01,-0.005,0.01,-0.005,0.195,0.039,-0.02,-0.039,0.088,-0.215
0.01,0.0,-0.01,-0.005,0.01,-0.005,0.195,0.039,-0.02,-0.039,0.088,-0.215
0.01,0.0,-0.01,-0.005,0.01,-0.005,0.195,0.039,-0.02,-0.039,0.088,-0.215
0.0,-0.005,-0.005,0.005,0.0,-0.005,0.181,0.029,-0.02,-0.039,0.078,-0.215
0.0,-0.01,-0.01,0.005,0.005,-0.01,0.176,0.029,-0.02,-0.039,0.078,-0.215
0.0,-0.015,-0.015,0.01,0.005,-0.015,0.171,0.029,-0.02,-0.039,0.078,-0.215
0.0,-0.02,-0.02,0.01,0.01,-0.02,0.166,0.029,-0.02,-0.039,0.078,-0.215
-0.005,-0.034,-0.029,0.02,0.01,-0.034,0.156,0.024,-0.029,-0.044,0.078,-0.224
-0.01,-0.039,-0.029,0.024,0.01,-0.034,0.146,0.02,-0.029,-0.049,0.078,-0.224
-0.015,-0.044,-0.029,0.029,0.005,-0.039,0.137,0.015,-0.029,-0.054,0.078,-0.224
-0.02,-0.049,-0.029,0.034,0.005,-0.039,0.127,0.01,-0.029,-0.059,0.078,-0.224
-0.01,-0.029,-0.02,0.02,0.005,-0.024,0.102,-0.01,-0.039,-0.068,0.073,-0.229
0.0,-0.02,-0.02,0.01,0.01,-0.02,0.078,-0.02,-0.049,-0.068,0.068,-0.234
0.01,-0.01,-0.02,0.0,0.015,-0.015,0.054,-0.029,-0.059,-0.068,0.063,-0.239
0.02,0.0,-0.02,-0.01,0.02,-0.01,0.029,-0.039,-0.068,-0.068,0.059,-0.244
0.015,-0.005,-0.02,-0.005,0.015,-0.015,0.02,-0.054,-0.078,-0.078,0.049,-0.234
0.01,-0.01,-0.02,0.0,0.015,-0.015,0.01,-0.059,-0.078,-0.078,0.049,-0.234
0.005,-0.015,-0.02,0.005,0.01,-0.02,0.0,-0.063,-0.078,-0.078,0.049,-0.234
0.0,-0.02,-0.02,0.01,0.01,-0.02,-0.01,-0.068,-0.078,-0.078,0.049,-0.234
0.005,-0.029,-0.034,0.015,0.02,-0.034,-0.01,-0.073,-0.083,-0.078,0.049,-0.249
0.01,-0.029,-0.039,0.01,0.024,-0.034,-0.01,-0.078,-0.088,-0.078,0.049,-0.254
0.015,-0.029,-0.044,0.01,0.029,-0.039,-0.01,-0.083,-0.093,-0.078,0.049,-0.259
0.02,-0.029,-0.049,0.005,0.034,-0.039,-0.01,-0.088,-0.098,-0.078,0.049,-0.264
0.005,-0.039,-0.044,0.02,0.024,-0.044,-0.005,-0.083,-0.088,-0.088,0.049,-0.254
0.0,-0.039,-0.039,0.02,0.02,-0.039,0.0,-0.078,-0.088,-0.088,0.049,-0.254
-0.005,-0.039,-0.034,0.024,0.015,-0.039,0.005,-0.073,-0.088,-0.088,0.049,-0.254
-0.01,-0.039,-0.029,0.024,0.01,-0.034,0.01,-0.068,-0.088,-0.088,0.049,-0.254
-0.02,-0.039,-0.02,0.029,0.0,-0.029,0.015,-0.068,-0.088,-0.078,0.049,-0.254
-0.02,-0.039,-0.02,0.029,0.0,-0.029,0.02,-0.068,-0.088,-0.078,0.049,-0.254
-0.02,-0.039,-0.02,0.029,0.0,-0.029,0.024,-0.068,-0.088,-0.078,0.049,-0.254
-0.02,-0.039,-0.02,0.029,0.0,-0.029,0.029,-0.068,-0.088,-0.078,0.049,-0.254
-0.015,-0.034,-0.02,0.024,0.0,-0.029,0.039,-0.068,-0.088,-0.088,0.039,-0.259
-0.01,-0.029,-0.02,0.02,0.005,-0.024,0.039,-0.068,-0.088,-0.088,0.039,-0.264
-0.005,-0.024,-0.02,0.015,0.005,-0.024,0.039,-0.068,-0.088,-0.088,0.039,-0.268
0.0,-0.02,-0.02,0.01,0.01,-0.02,0.039,-0.068,-0.088,-0.088,0.039,-0.273
-0.01,-0.02,-0.01,0.015,0.0,-0.015,0.044,-0.063,-0.083,-0.083,0.044,-0.259
-0.01,-0.02,-0.01,0.015,0.0,-0.015,0.049,-0.059,-0.078,-0.078,0.049,-0.254
-0.01,-0.02,-0.01,0.015,0.0,-0.015,0.054,-0.054,-0.073,-0.073,0.054,-0.249
-0.01,-0.02,-0.01,0.015,0.0,-0.015,0.059,-0.049,-0.068,-0.068,0.059,-0.244
-0.02,-0.029,-0.01,0.024,-0.005,-0.02,0.068,-0.059,-0.078,-0.073,0.044,-0.254
-0.02,-0.029,-0.01,0.024,-0.005,-0.02,0.068,-0.059,-0.078,-0.078,0.039,-0.264
-0.02,-0.029,-0.01,0.024,-0.005,-0.02,0.068,-0.059,-0.078,-0.083,0.034,-0.273
-0.02,-0.029,-0.01,0.024,-0.005,-0.02,0.068,-0.059,-0.078,-0.088,0.029,-0.283
-0.02,-0.029,-0.01,0.024,-0.005,-0.02,0.083,-0.054,-0.073,-0.083,0.044,-0.278
-0.02,-0.029,-0.01,0.024,-0.005,-0.02,0.088,-0.049,-0.068,-0.078,0.049,-0.273
-0.02,-0.029,-0.01,0.024,-0.005,-0.02,0.093,-0.044,-0.063,-0.073,0.054,-0.268
-0.02,-0.029,-0.01,0.024,-0.005,-0.02,0.098,-0.039,-0.059,-0.068,0.059,-0.264
-0.02,-0.034,-0.015,0.029,-0.005,-0.024,0.107,-0.029,-0.059,-0.078,0.054,-0.268
-0.02,-0.039,-0.02,0.029,0.0,-0.029,0.107,-0.029,-0.059,-0.078,0.049,-0.273
-0.02,-0.044,-0.024,0.034,0.0,-0.034,0.107,-0.029,-0.059,-0.078,0.044,-0.278
-0.02,-0.049,-0.029,0.034,0.005,-0.039,0.107,-0.029,-0.059,-0.078,0.039,-0.283
-0.015,-0.034,-0.02,0.024,0.0,-0.029,0.107,-0.029,-0.068,-0.078,0.039,-0.293
-0.01,-0.029,-0.02,0.02,0.005,-0.024,0.107,-0.029,-0.068,-0.078,0.039,-0.293
-0.005,-0.024,-0.02,0.015,0.005,-0.024,0.107,-0.029,-0.068,-0.078,0.039,-0.293
0.0,-0.02,-0.02,0.01,0.01,-0.02,0.107,-0.029,-0.068,-0.078,0.039,-0.293
-0.01,-0.02,-0.01,0.015,0.0,-0.015,0.122,-0.024,-0.063,-0.073,0.049,-0.283
-0.01,-0.02,-0.01,0.015,0.0,-0.015,0.127,-0.02,-0.059,-0.068,0.049,-0.283
-0.01,-0.02,-0.01,0.015,0.0,-0.015,0.132,-0.015,-0.054,-0.063,0.049,-0.283
-0.01,-0.02,-0.01,0.015,0.0,-0.015,0.137,-0.01,-0.049,-0.059,0.049,-0.283
-0.01,-0.024,-0.015,0.02,0.0,-0.02,0.146,-0.01,-0.049,-0.068,0.049,-0.283
-0.01,-0.029,-0.02,0.02,0.005,-0.024,0.146,-0.01,-0.049,-0.068,0.049,-0.283
-0.01,-0.034,-0.024,0.024,0.005,-0.029,0.146,-0.01,-0.049,-0.068,0.049,-0.283
-0.01,-0.039,-0.029,0.024,0.01,-0.034,0.146,-0.01,-0.049,-0.068,0.049,-0.283
-0.015,-0.024,-0.01,0.02,-0.005,-0.02,0.151,-0.01,-0.049,-0.059,0.044,-0.288
-0.02,-0.02,0.0,0.02,-0.01,-0.01,0.156,-0.01,-0.049,-0.059,0.039,-0.293
-0.024,-0.015,0.01,0.02,-0.02,-0.005,0.161,-0.01,-0.049,-0.059,0.034,-0.298
-0.029,-0.01,0.02,0.02,-0.024,0.005,0.166,-0.01,-0.049,-0.059,0.029,-0.303
-0.01,-0.01,0.0,0.01,-0.005,-0.005,0.171,-0.005,-0.044,-0.049,0.039,-0.303
0.0,-0.01,-0.01,0.005,0.005,-0.01,0.176,0.0,-0.039,-0.049,0.039,-0.303
0.01,-0.01,-0.02,0.0,0.015,-0.015,0.181,0.005,-0.034,-0.049,0.039,-0.303
0.02,-0.01,-0.029,-0.005,0.024,-0.02,0.185,0.01,-0.029,-0.049,0.039,-0.303
0.01,-0.02,-0.029,0.005,0.02,-0.024,0.195,0.01,-0.039,-0.049,0.049,-0.303
0.0,-0.02,-0.02,0.01,0.01,-0.02,0.195,0.01,-0.039,-0.049,0.049,-0.303
-0.01,-0.02,-0.01,0.015,0.0,-0.015,0.195,0.01,-0.039,-0.049,0.049,-0.303
-0.02,-0.02,0.0,0.02,-0.01,-0.01,0.195,0.01,-0.039,-0.049,0.049,-0.303
-0.024,-0.02,0.005,0.024,-0.015,-0.01,0.195,0.01,-0.039,-0.049,0.039,-0.312
-0.029,-0.02,0.01,0.024,-0.02,-0.005,0.195,0.01,-0.039,-0.049,0.039,-0.312
-0.034,-0.02,0.015,0.029,-0.024,-0.005,0.195,0.01,-0.039,-0.049,0.039,-0.312
-0.039,-0.02,0.02,0.029,-0.029,0.0,0.195,0.01,-0.039,-0.049,0.039,-0.312
-0.024,-0.01,0.015,0.02,-0.02,0.0,0.181,-0.005,-0.044,-0.054,0.034,-0.322
-0.02,-0.01,0.01,0.015,-0.015,0.0,0.166,-0.01,-0.049,-0.059,0.029,-0.322
-0.015,-0.01,0.005,0.015,-0.01,-0.005,0.151,-0.015,-0.054,-0.063,0.024,-0.322
-0.01,-0.01,0.0,0.01,-0.005,-0.005,0.137,-0.02,-0.059,-0.068,0.02,-0.322
-0.02,-0.015,0.005,0.02,-0.015,-0.005,0.107,-0.034,-0.059,-0.059,0.024,-0.322
-0.02,-0.02,0.0,0.02,-0.01,-0.01,0.088,-0.039,-0.059,-0.059,0.029,-0.322
-0.02,-0.024,-0.005,0.024,-0.01,-0.015,0.068,-0.044,-0.059,-0.059,0.034,-0.322
-0.02,-0.029,-0.01,0.024,-0.005,-0.02,0.049,-0.049,-0.059,-0.059,0.039,-0.322
-0.01,-0.029,-0.02,0.02,0.005,-0.024,0.015,-0.063,-0.073,-0.063,0.034,-0.322
-0.01,-0.029,-0.02,0.02,0.005,-0.024,-0.01,-0.078,-0.078,-0.068,0.029,-0.322
-0.01,-0.029,-0.02,0.02,0.005,-0.024,-0.034,-0.093,-0.083,-0.073,0.024,-0.322
-0.01,-0.029,-0.02,0.02,0.005,-0.024,-0.059,-0.107,-0.088,-0.078,0.02,-0.322
-0.005,-0.024,-0.02,0.015,0.005,-0.024,-0.063,-0.098,-0.078,-0.068,0.02,-0.332
0.0,-0.02,-0.02,0.01,0.01,-0.02,-0.068,-0.098,-0.078,-0.068,0.02,-0.332
0.005,-0.015,-0.02,0.005,0.01,-0.02,-0.073,-0.098,-0.078,-0.068,0.02,-0.332
0.01,-0.01,-0.02,0.0,0.015,-0.015,-0.078,-0.098,-0.078,-0.068,0.02,-0.332
0.0,0.0,0.0,0.0,0.0,0.0,-0.063,-0.098,-0.078,-0.068,0.02,-0.332
0.0,0.0,0.0,0.0,0.0,0.0,-0.059,-0.098,-0.078,-0.068,0.02,-0.332
0.0,0.0,0.0,0.0,0.0,0.0,-0.054,-0.098,-0.078,-0.068,0.02,-0.332
0.0,0.0,0.0,0.0,0.0,0.0,-0.049,-0.098,-0.078,-0.068,0.02,-0.332
0.0,-0.015,-0.015,0.01,0.005,-0.015,-0.059,-0.088,-0.068,-0.059,0.02,-0.342
0.0,-0.02,-0.02,0.01,0.01,-0.02,-0.059,-0.088,-0.068,-0.059,0.02,-0.342
0.0,-0.024,-0.024,0.015,0.01,-0.024,-0.059,-0.088,-0.068,-0.059,0.02,-0.342
0.0,-0.029,-0.029,0.015,0.015,-0.029,-0.059,-0.088,-0.068,-0.059,0.02,-0.342
0.01,-0.029,-0.039,0.01,0.024,-0.034,-0.054,-0.088,-0.078,-0.068,0.02,-0.351
0.01,-0.029,-0.039,0.01,0.024,-0.034,-0.049,-0.088,-0.078,-0.068,0.02,-0.351
0.01,-0.029,-0.039,0.01,0.024,-0.034,-0.044,-0.088,-0.078,-0.068,0.02,-0.351
0.01,-0.029,-0.039,0.01,0.024,-0.034,-0.039,-0.088,-0.078,-0.068,0.02,-0.351
0.02,-0.015,-0.034,0.0,0.024,-0.024,-0.034,-0.078,-0.068,-0.068,0.02,-0.342
0.02,-0.01,-0.029,-0.005,0.024,-0.02,-0.029,-0.078,-0.068,-0.068,0.02,-0.342
0.02,-0.005,-0.024,-0.005,0.02,-0.015,-0.024,-0.078,-0.068,-0.068,0.02,-0.342
0.02,0.0,-0.02,-0.01,0.02,-0.01,-0.02,-0.078,-0.068,-0.068,0.02,-0.342
0.01,-0.015,-0.024,0.005,0.015,-0.02,-0.029,-0.088,-0.073,-0.078,0.005,-0.356
0.0,-0.02,-0.02,0.01,0.01,-0.02,-0.029,-0.088,-0.078,-0.078,0.0,-0.361
-0.01,-0.024,-0.015,0.02,0.0,-0.02,-0.029,-0.088,-0.083,-0.078,-0.005,-0.366
-0.02,-0.029,-0.01,0.024,-0.005,-0.02,-0.029,-0.088,-0.088,-0.078,-0.01,-0.371
-0.02,-0.039,-0.02,0.029,0.0,-0.029,-0.015,-0.078,-0.078,-0.078,-0.005,-0.361
-0.02,-0.039,-0.02,0.029,0.0,-0.029,-0.01,-0.078,-0.078,-0.078,0.0,-0.361
-0.02,-0.039,-0.02,0.029,0.0,-0.029,-0.005,-0.078,-0.078,-0.078,0.005,-0.361
-0.02,-0.039,-0.02,0.029,0.0,-0.029,0.0,-0.078,-0.078,-0.078,0.01,-0.361
-0.01,-0.029,-0.02,0.02,0.005,-0.024,0.01,-0.068,-0.078,-0.078,0.005,-0.371
-0.01,-0.029,-0.02,0.02,0.005,-0.024,0.01,-0.068,-0.078,-0.078,0.0,-0.371
-0.01,-0.029,-0.02,0.02,0.005,-0.024,0.01,-0.068,-0.078,-0.078,-0.005,-0.371
-0.01,-0.029,-0.02,0.02,0.005,-0.024,0.01,-0.068,-0.078,-0.078,-0.01,-0.371
0.0,-0.02,-0.02,0.01,0.01,-0.02,0.015,-0.059,-0.068,-0.088,-0.01,-0.376
0.0,-0.02,-0.02,0.01,0.01,-0.02,0.02,-0.059,-0.068,-0.088,-0.01,-0.381
0.0,-0.02,-0.02,0.01,0.01,-0.02,0.024,-0.059,-0.068,-0.088,-0.01,-0.386
0.0,-0.02,-0.02,0.01,0.01,-0.02,0.029,-0.059,-0.068,-0.088,-0.01,-0.39
-0.005,-0.034,-0.029,0.02,0.01,-0.034,0.034,-0.049,-0.059,-0.088,-0.005,-0.376
-0.01,-0.039,-0.029,0.024,0.01,-0.034,0.039,-0.049,-0.059,-0.088,0.0,-0.371
-0.015,-0.044,-0.029,0.029,0.005,-0.039,0.044,-0.049,-0.059,-0.088,0.005,-0.366
-0.02,-0.049,-0.029,0.034,0.005,-0.039,0.049,-0.049,-0.059,-0.088,0.01,-0.361
-0.015,-0.029,-0.015,0.024,0.0,-0.024,0.054,-0.039,-0.068,-0.088,0.0,-0.366
-0.01,-0.02,-0.01,0.015,0.0,-0.015,0.059,-0.039,-0.068,-0.088,0.0,-0.371
-0.005,-0.01,-0.005,0.01,0.0,-0.01,0.063,-0.039,-0.068,-0.088,0.0,-0.376
0.0,0.0,0.0,0.0,0.0,0.0,0.068,-0.039,-0.068,-0.088,0.0,-0.381
-0.01,-0.01,0.0,0.01,-0.005,-0.005,0.078,-0.029,-0.054,-0.078,-0.01,-0.381
-0.01,-0.01,0.0,0.01,-0.005,-0.005,0.088,-0.029,-0.049,-0.078,-0.01,-0.381
-0.01,-0.01,0.0,0.01,-0.005,-0.005,0.098,-0.029,-0.044,-0.078,-0.01,-0.381
-0.01,-0.01,0.0,0.01,-0.005,-0.005,0.107,-0.029,-0.039,-0.078,-0.01,-0.381
-0.01,-0.005,0.005,0.01,-0.01,0.0,0.117,-0.02,-0.049,-0.078,-0.01,-0.381
-0.01,0.0,0.01,0.005,-0.01,0.005,0.117,-0.02,-0.049,-0.078,-0.01,-0.381
-0.01,0.005,0.015,0.005,-0.015,0.01,0.117,-0.02,-0.049,-0.078,-0.01,-0.381
-0.01,0.01,0.02,0.0,-0.015,0.015,0.117,-0.02,-0.049,-0.078,-0.01,-0.381
0.0,0.0,0.0,0.0,0.0,0.0,0.132,-0.015,-0.044,-0.078,-0.02,-0.39
0.0,0.0,0.0,0.0,0.0,0.0,0.137,-0.01,-0.039,-0.078,-0.02,-0.39
0.0,0.0,0.0,0.0,0.0,0.0,0.142,-0.005,-0.034,-0.078,-0.02,-0.39
0.0,0.0,0.0,0.0,0.0,0.0,0.146,0.0,-0.029,-0.078,-0.02,-0.39
-0.01,0.0,0.01,0.005,-0.01,0.005,0.146,0.0,-0.029,-0.068,-0.02,-0.39
-0.01,0.0,0.01,0.005,-0.01,0.005,0.146,0.0,-0.029,-0.068,-0.02,-0.39
-0.01,0.0,0.01,0.005,-0.01,0.005,0.146,0.0,-0.029,-0.068,-0.02,-0.39
-0.01,0.0,0.01,0.005,-0.01,0.005,0.146,0.0,-0.029,-0.068,-0.02,-0.39
-0.01,0.005,0.015,0.005,-0.015,0.01,0.122,-0.01,-0.034,-0.078,-0.029,-0.4
-0.01,0.01,0.02,0.0,-0.015,0.015,0.107,-0.02,-0.039,-0.078,-0.029,-0.4
-0.01,0.015,0.024,0.0,-0.02,0.02,0.093,-0.029,-0.044,-0.078,-0.029,-0.4
-0.01,0.02,0.029,-0.005,-0.02,0.024,0.078,-0.039,-0.049,-0.078,-0.029,-0.4
-0.02,0.015,0.034,0.005,-0.029,0.024,0.059,-0.044,-0.059,-0.088,-0.039,-0.41
-0.02,0.01,0.029,0.005,-0.024,0.02,0.049,-0.049,-0.059,-0.088,-0.039,-0.41
-0.02,0.005,0.024,0.01,-0.024,0.015,0.039,-0.054,-0.059,-0.088,-0.039,-0.41
-0.02,0.0,0.02,0.01,-0.02,0.01,0.029,-0.059,-0.059,-0.088,-0.039,-0.41
-0.01,-0.015,-0.005,0.015,-0.005,-0.01,0.015,-0.068,-0.068,-0.088,-0.049,-0.41
-0.01,-0.02,-0.01,0.015,0.0,-0.015,0.01,-0.068,-0.068,-0.088,-0.049,-0.41
-0.01,-0.024,-0.015,0.02,0.0,-0.02,0.005,-0.068,-0.068,-0.088,-0.049,-0.41
-0.01,-0.029,-0.02,0.02,0.005,-0.024,0.0,-0.068,-0.068,-0.088,-0.049,-0.41
-0.01,-0.024,-0.015,0.02,0.0,-0.02,-0.005,-0.068,-0.068,-0.098,-0.039,-0.41
-0.01,-0.02,-0.01,0.015,0.0,-0.015,-0.01,-0.068,-0.068,-0.098,-0.039,-0.41
-0.01,-0.015,-0.005,0.015,-0.005,-0.01,-0.015,-0.068,-0.068,-0.098,-0.039,-0.41
-0.01,-0.01,0.0,0.01,-0.005,-0.005,-0.02,-0.068,-0.068,-0.098,-0.039,-0.41
-0.005,-0.02,-0.015,0.015,0.005,-0.02,-0.029,-0.078,-0.078,-0.107,-0.044,-0.415
0.0,-0.02,-0.02,0.01,0.01,-0.02,-0.039,-0.078,-0.078,-0.107,-0.049,-0.42
0.005,-0.02,-0.024,0.01,0.015,-0.024,-0.049,-0.078,-0.078,-0.107,-0.054,-0.425
0.01,-0.02,-0.029,0.005,0.02,-0.024,-0.059,-0.078,-0.078,-0.107,-0.059,-0.429
0.02,-0.015,-0.034,0.0,0.024,-0.024,-0.063,-0.083,-0.088,-0.107,-0.068,-0.439
0.02,-0.01,-0.029,-0.005,0.024,-0.02,-0.068,-0.088,-0.088,-0.107,-0.068,-0.439
0.02,-0.01,-0.029,-0.005,0.024,-0.02,-0.073,-0.093,-0.088,-0.107,-0.068,-0.439
0.01,-0.02,-0.029,0.005,0.02,-0.024,-0.078,-0.098,-0.083,-0.102,-0.063,-0.434
0.01,-0.015,-0.024,0.005,0.015,-0.02,-0.098,-0.093,-0.083,-0.112,-0.073,-0.434
0.005,-0.01,-0.015,0.005,0.01,-0.015,-0.102,-0.098,-0.093,-0.122,-0.073,-0.439
-0.005,-0.029,-0.024,0.02,0.01,-0.029,-0.102,-0.093,-0.093,-0.127,-0.078,-0.449
-0.015,-0.024,-0.01,0.02,-0.005,-0.02,-0.107,-0.098,-0.093,-0.127,-0.078,-0.454
-0.015,-0.024,-0.01,0.02,-0.005,-0.02,-0.102,-0.098,-0.093,-0.122,-0.068,-0.454
-0.01,-0.044,-0.034,0.029,0.01,-0.039,-0.098,-0.098,-0.093,-0.112,-0.068,-0.454
-0.01,-0.054,-0.044,0.034,0.015,-0.049,-0.098,-0.107,-0.093,-0.122,-0.073,-0.459
-0.024,-0.068,-0.044,0.049,0.01,-0.059,-0.102,-0.107,-0.098,-0.122,-0.078,-0.459
-0.02,-0.059,-0.039,0.039,0.01,-0.049,-0.078,-0.102,-0.093,-0.112,-0.078,-0.468
-0.015,-0.049,-0.034,0.034,0.01,-0.044,-0.073,-0.093,-0.088,-0.112,-0.073,-0.464
-0.01,-0.039,-0.029,0.024,0.01,-0.034,-0.073,-0.088,-0.088,-0.117,-0.073,-0.464
-0.005,-0.029,-0.024,0.02,0.01,-0.029,-0.073,-0.083,-0.083,-0.117,-0.078,-0.464
0.0,-0.029,-0.029,0.015,0.015,-0.029,-0.059,-0.078,-0.073,-0.107,-0.068,-0.454
0.01,-0.029,-0.039,0.01,0.024,-0.034,-0.063,-0.073,-0.078,-0.107,-0.078,-0.454
0.015,-0.029,-0.044,0.01,0.029,-0.039,-0.059,-0.068,-0.078,-0.107,-0.078,-0.464
0.015,-0.039,-0.054,0.015,0.034,-0.049,-0.054,-0.063,-0.078,-0.107,-0.078,-0.454
0.0,-0.044,-0.044,0.024,0.02,-0.044,-0.039,-0.068,-0.078,-0.117,-0.078,-0.468
0.0,-0.039,-0.039,0.02,0.02,-0.039,-0.039,-0.068,-0.078,-0.117,-0.083,-0.473
-0.005,-0.044,-0.039,0.024,0.015,-0.044,-0.029,-0.068,-0.068,-0.117,-0.088,-0.478
-0.01,-0.049,-0.039,0.029,0.015,-0.044,-0.029,-0.068,-0.068,-0.117,-0.093,-0.483
-0.015,-0.039,-0.024,0.029,0.005,-0.034,-0.029,-0.054,-0.063,-0.112,-0.088,-0.488
-0.015,-0.039,-0.024,0.029,0.005,-0.034,-0.024,-0.049,-0.063,-0.112,-0.088,-0.488
-0.02,-0.044,-0.024,0.034,0.0,-0.034,-0.02,-0.044,-0.063,-0.107,-0.093,-0.488
-0.02,-0.044,-0.024,0.034,0.0,-0.034,-0.015,-0.039,-0.059,-0.107,-0.093,-0.488
-0.029,-0.049,-0.02,0.039,-0.005,-0.034,0.0,-0.049,-0.068,-0.117,-0.093,-0.498
-0.029,-0.054,-0.024,0.044,-0.005,-0.039,0.0,-0.044,-0.073,-0.112,-0.088,-0.488
-0.029,-0.059,-0.029,0.044,0.0,-0.044,-0.005,-0.044,-0.073,-0.112,-0.088,-0.488
-0.029,-0.063,-0.034,0.049,0.0,-0.049,-0.005,-0.049,-0.083,-0.122,-0.093,-0.493
-0.029,-0.063,-0.034,0.049,0.0,-0.049,0.005,-0.039,-0.073,-0.122,-0.102,-0.498
-0.024,-0.063,-0.039,0.044,0.005,-0.054,0.005,-0.034,-0.068,-0.122,-0.102,-0.498
-0.01,-0.054,-0.044,0.034,0.015,-0.049,0.005,-0.034,-0.068,-0.122,-0.102,-0.503
-0.005,-0.054,-0.049,0.029,0.02,-0.054,0.005,-0.034,-0.068,-0.117,-0.093,-0.508
-0.01,-0.039,-0.029,0.024,0.01,-0.034,0.005,-0.044,-0.068,-0.127,-0.098,-0.517
-0.01,-0.034,-0.024,0.024,0.005,-0.029,0.0,-0.044,-0.078,-0.132,-0.112,-0.522
-0.01,-0.029,-0.02,0.02,0.005,-0.024,0.0,-0.054,-0.078,-0.132,-0.117,-0.522
-0.015,-0.029,-0.015,0.024,0.0,-0.024,0.0,-0.039,-0.073,-0.127,-0.117,-0.517
-0.015,-0.034,-0.02,0.024,0.0,-0.029,0.005,-0.039,-0.059,-0.117,-0.107,-0.517
-0.005,-0.024,-0.02,0.015,0.005,-0.024,0.005,-0.039,-0.059,-0.112,-0.107,-0.517
-0.02,-0.054,-0.034,0.039,0.005,-0.044,0.005,-0.034,-0.063,-0.112,-0.112,-0.517
-0.029,-0.068,-0.039,0.049,0.005,-0.054,0.005,-0.034,-0.063,-0.112,-0.112,-0.522
-0.02,-0.039,-0.02,0.029,0.0,-0.029,-0.01,-0.039,-0.063,-0.102,-0.112,-0.512
-0.015,-0.034,-0.02,0.024,0.0,-0.029,-0.02,-0.044,-0.063,-0.102,-0.117,-0.512
-0.015,-0.039,-0.024,0.029,0.005,-0.034,-0.024,-0.049,-0.063,-0.102,-0.117,-0.512
-0.024,-0.034,-0.01,0.029,-0.01,-0.024,-0.034,-0.059,-0.068,-0.102,-0.117,-0.512
-0.015,-0.015,0.0,0.015,-0.01,-0.01,-0.044,-0.073,-0.078,-0.102,-0.117,-0.522
0.0,-0.01,-0.01,0.005,0.005,-0.01,-0.049,-0.073,-0.068,-0.107,-0.117,-0.522
-0.01,0.005,0.015,0.005,-0.015,0.01,-0.059,-0.078,-0.068,-0.112,-0.117,-0.522
-0.01,0.0,0.01,0.005,-0.01,0.005,-0.068,-0.083,-0.078,-0.117,-0.117,-0.522
-0.024,0.005,0.029,0.01,-0.029,0.015,-0.063,-0.078,-0.068,-0.107,-0.117,-0.522
-0.024,0.005,0.029,0.01,-0.029,0.015,-0.063,-0.073,-0.063,-0.107,-0.117,-0.522
-0.024,0.015,0.039,0.005,-0.034,0.024,-0.063,-0.063,-0.063,-0.107,-0.117,-0.527
-0.024,0.005,0.029,0.01,-0.029,0.015,-0.063,-0.059,-0.063,-0.107,-0.117,-0.527
-0.015,0.005,0.02,0.005,-0.02,0.01,-0.063,-0.068,-0.054,-0.098,-0.107,-0.527
-0.01,0.01,0.02,0.0,-0.015,0.015,-0.063,-0.068,-0.054,-0.098,-0.107,-0.527
-0.005,0.01,0.015,0.0,-0.01,0.01,-0.063,-0.068,-0.054,-0.098,-0.107,-0.527
-0.005,0.0,0.005,0.005,-0.005,0.0,-0.063,-0.068,-0.054,-0.098,-0.107,-0.532
-0.054,-0.029,0.024,0.044,-0.039,-0.005,-0.083,-0.083,-0.083,-0.127,-0.146,-0.566
-0.034,-0.015,0.02,0.024,-0.029,0.0,-0.068,-0.073,-0.063,-0.117,-0.151,-0.566
-0.005,0.015,0.02,-0.005,-0.015,0.015,-0.044,-0.049,-0.039,-0.102,-0.142,-0.566
-0.01,0.015,0.024,0.0,-0.02,0.02,-0.063,-0.039,-0.029,-0.112,-0.161,-0.576
-0.029,-0.005,0.024,0.02,-0.029,0.01,-0.083,-0.02,-0.02,-0.127,-0.185,-0.59
-0.049,-0.005,0.044,0.029,-0.049,0.02,-0.059,-0.01,0.0,-0.088,-0.171,-0.571
-0.034,0.044,0.078,-0.005,-0.059,0.059,-0.044,-0.024,-0.005,-0.054,-0.132,-0.551
-0.034,0.054,0.088,-0.01,-0.063,0.068,-0.063,-0.054,-0.034,-0.01,-0.093,-0.551
-0.024,0.015,0.039,0.005,-0.034,0.024,-0.068,-0.044,-0.024,0.098,0.0,-0.512
-0.005,-0.024,-0.02,0.015,0.005,-0.024,-0.068,-0.024,0.0,0.21,0.127,-0.464
-0.01,-0.049,-0.039,0.029,0.015,-0.044,-0.073,-0.015,0.0,0.288,0.224,-0.425
0.005,-0.054,-0.059,0.024,0.029,-0.059,-0.083,-0.005,0.02,0.361,0.337,-0.356
0.049,-0.068,-0.117,0.01,0.083,-0.093,-0.088,0.029,0.093,0.498,0.468,-0.293
0.039,-0.059,-0.098,0.01,0.068,-0.078,-0.107,0.054,0.166,0.63,0.586,-0.229
0.029,-0.02,-0.049,-0.005,0.039,-0.034,-0.137,0.059,0.215,0.727,0.659,-0.161
0.049,0.015,-0.034,-0.029,0.039,-0.01,-0.146,0.083,0.273,0.82,0.737,-0.078
0.073,0.054,-0.02,-0.063,0.044,0.015,-0.146,0.127,0.356,0.908,0.766,-0.054
0.078,0.102,0.024,-0.088,0.024,0.063,-0.137,0.181,0.449,0.947,0.747,-0.063
0.078,0.117,0.039,-0.098,0.02,0.078,-0.117,0.244,0.517,0.937,0.673,-0.083
0.063,0.117,0.054,-0.088,0.005,0.083,-0.098,0.273,0.527,0.805,0.503,-0.161
0.02,0.132,0.112,-0.073,-0.049,0.122,-0.059,0.288,0.468,0.537,0.195,-0.322
-0.044,0.132,0.176,-0.044,-0.112,0.151,0.015,0.317,0.41,0.171,-0.176,-0.542
-0.088,0.098,0.185,-0.005,-0.137,0.142,0.102,0.351,0.346,-0.205,-0.512,-0.737
-0.132,0.054,0.185,0.039,-0.161,0.117,0.161,0.361,0.283,-0.517,-0.766,-0.893
-0.171,0.01,0.181,0.083,-0.176,0.093,0.181,0.342,0.249,-0.683,-0.874,-0.966
-0.166,-0.039,0.127,0.102,-0.146,0.044,0.19,0.337,0.254,-0.698,-0.854,-0.991
-0.117,-0.054,0.063,0.088,-0.093,0.005,0.215,0.366,0.312,-0.61,-0.766,-0.956
-0.122,-0.083,0.039,0.102,-0.083,-0.024,0.234,0.395,0.371,-0.503,-0.669,-0.927
-0.19,-0.166,0.024,0.181,-0.107,-0.073,0.234,0.425,0.386,-0.478,-0.644,-0.917
-0.22,-0.195,0.024,0.21,-0.122,-0.088,0.244,0.444,0.366,-0.503,-0.62,-0.922
-0.142,-0.137,0.005,0.142,-0.073,-0.068,0.239,0.454,0.386,-0.459,-0.59,-0.908
-0.088,-0.117,-0.029,0.102,-0.029,-0.073,0.249,0.508,0.454,-0.356,-0.527,-0.878
-0.078,-0.137,-0.059,0.107,-0.01,-0.098,0.288,0.571,0.512,-0.303,-0.498,-0.869
-0.088,-0.137,-0.049,0.112,-0.02,-0.093,0.288,0.581,0.483,-0.322,-0.488,-0.864
-0.093,-0.132,-0.039,0.112,-0.029,-0.088,0.303,0.605,0.444,-0.332,-0.488,-0.874
-0.127,-0.181,-0.054,0.156,-0.039,-0.117,0.361,0.688,0.425,-0.337,-0.483,-0.864
-0.132,-0.229,-0.098,0.181,-0.02,-0.166,0.429,0.776,0.415,-0.356,-0.493,-0.869
-0.112,-0.22,-0.107,0.166,-0.005,-0.166,0.478,0.859,0.366,-0.39,-0.493,-0.869
-0.122,-0.229,-0.107,0.176,-0.01,-0.171,0.537,0.922,0.317,-0.395,-0.464,-0.844
-0.146,-0.229,-0.083,0.19,-0.034,-0.156,0.576,0.932,0.244,-0.41,-0.454,-0.844
-0.127,-0.21,-0.083,0.171,-0.024,-0.146,0.581,0.922,0.151,-0.449,-0.483,-0.864
-0.117,-0.205,-0.088,0.161,-0.015,-0.146,0.586,0.922,0.093,-0.459,-0.483,-0.878
-0.137,-0.234,-0.098,0.185,-0.02,-0.166,0.62,0.942,0.044,-0.434,-0.468,-0.878
-0.117,-0.224,-0.107,0.171,-0.005,-0.166,0.654,0.947,0.0,-0.434,-0.459,-0.864
-0.098,-0.195,-0.098,0.146,0.0,-0.146,0.703,0.966,-0.01,-0.405,-0.449,-0.844
-0.122,-0.195,-0.073,0.161,-0.024,-0.137,0.761,0.976,0.0,-0.381,-0.429,-0.834
-0.127,-0.195,-0.068,0.161,-0.029,-0.132,0.8,0.956,-0.02,-0.381,-0.429,-0.825
-0.132,-0.2,-0.068,0.166,-0.034,-0.137,0.81,0.937,-0.02,-0.366,-0.42,-0.834
-0.161,-0.2,-0.039,0.181,-0.063,-0.122,0.839,0.932,0.02,-0.342,-0.395,-0.82
-0.166,-0.195,-0.029,0.181,-0.068,-0.112,0.883,0.947,0.034,-0.342,-0.386,-0.815
-0.137,-0.185,-0.049,0.161,-0.044,-0.117,0.888,0.913,0.015,-0.351,-0.405,-0.834
-0.117,-0.176,-0.059,0.146,-0.029,-0.117,0.83,0.766,-0.044,-0.361,-0.4,-0.849
-0.117,-0.166,-0.049,0.142,-0.034,-0.107,0.727,0.59,-0.088,-0.342,-0.381,-0.825
-0.093,-0.132,-0.039,0.112,-0.029,-0.088,0.59,0.405,-0.122,-0.322,-0.351,-0.8
-0.063,-0.093,-0.029,0.078,-0.02,-0.063,0.464,0.2,-0.161,-0.283,-0.327,-0.786
-0.073,-0.093,-0.02,0.083,-0.029,-0.059,0.356,0.054,-0.171,-0.259,-0.312,-0.761
-0.093,-0.098,-0.005,0.098,-0.044,-0.054,0.259,-0.024,-0.171,-0.234,-0.298,-0.761
-0.078,-0.068,0.01,0.073,-0.044,-0.029,0.156,-0.054,-0.171,-0.215,-0.273,-0.742
-0.054,-0.059,-0.005,0.059,-0.024,-0.034,0.088,-0.059,-0.166,-0.195,-0.254,-0.732
-0.054,-0.068,-0.015,0.063,-0.02,-0.044,0.024,-0.054,-0.156,-0.171,-0.224,-0.717
-0.044,-0.049,-0.005,0.049,-0.02,-0.029,-0.034,-0.054,-0.146,-0.151,-0.22,-0.703
-0.024,-0.034,-0.01,0.029,-0.01,-0.024,-0.073,-0.063,-0.137,-0.137,-0.205,-0.703
0.015,-0.005,-0.02,-0.005,0.015,-0.015,-0.088,-0.063,-0.102,-0.112,-0.181,-0.693
0.005,-0.005,-0.01,0.0,0.005,-0.01,-0.117,-0.059,-0.083,-0.112,-0.176,-0.703
-0.01,-0.005,0.005,0.01,-0.01,0.0,-0.137,-0.063,-0.073,-0.093,-0.171,-0.688
-0.005,-0.005,0.0,0.005,-0.005,-0.005,-0.146,-0.068,-0.068,-0.088,-0.161,-0.683
0.01,-0.01,-0.02,0.0,0.015,-0.015,-0.142,-0.073,-0.068,-0.078,-0.151,-0.678
0.015,-0.005,-0.02,-0.005,0.015,-0.015,-0.156,-0.073,-0.088,-0.073,-0.146,-0.673
0.0,-0.005,-0.005,0.005,0.0,-0.005,-0.161,-0.078,-0.107,-0.083,-0.156,-0.683
0.0,0.0,0.0,0.0,0.0,0.0,-0.166,-0.088,-0.107,-0.078,-0.146,-0.683
0.005,0.01,0.005,-0.005,0.0,0.005,-0.166,-0.093,-0.102,-0.068,-0.142,-0.678
0.005,0.024,0.02,-0.015,-0.01,0.02,-0.166,-0.098,-0.102,-0.068,-0.142,-0.678
-0.005,0.01,0.015,0.0,-0.01,0.01,-0.176,-0.107,-0.098,-0.063,-0.151,-0.683
-0.01,0.005,0.015,0.005,-0.015,0.01,-0.181,-0.117,-0.093,-0.063,-0.151,-0.698
-0.01,0.0,0.01,0.005,-0.01,0.005,-0.185,-0.117,-0.088,-0.063,-0.151,-0.708
-0.015,-0.005,0.01,0.01,-0.015,0.0,-0.185,-0.122,-0.088,-0.063,-0.151,-0.712
-0.024,-0.01,0.015,0.02,-0.02,0.0,-0.195,-0.117,-0.083,-0.059,-0.137,-0.698
-0.015,-0.01,0.005,0.015,-0.01,-0.005,-0.205,-0.122,-0.088,-0.049,-0.132,-0.693
-0.015,-0.01,0.005,0.015,-0.01,-0.005,-0.21,-0.117,-0.088,-0.044,-0.122,-0.688
-0.02,-0.02,0.0,0.02,-0.01,-0.01,-0.22,-0.112,-0.088,-0.034,-0.112,-0.688
-0.01,-0.015,-0.005,0.015,-0.005,-0.01,-0.239,-0.132,-0.098,-0.044,-0.122,-0.703
0.005,0.005,0.0,-0.005,0.0,0.0,-0.244,-0.132,-0.098,-0.039,-0.117,-0.708
0.005,0.01,0.005,-0.005,0.0,0.005,-0.239,-0.132,-0.093,-0.029,-0.112,-0.703
-0.005,0.015,0.02,-0.005,-0.015,0.015,-0.244,-0.137,-0.088,-0.029,-0.112,-0.708
0.015,0.015,0.0,-0.015,0.005,0.005,-0.249,-0.127,-0.078,-0.02,-0.102,-0.717
0.015,0.015,0.0,-0.015,0.005,0.005,-0.254,-0.122,-0.078,-0.02,-0.102,-0.712
0.015,0.005,-0.01,-0.01,0.01,-0.005,-0.259,-0.122,-0.078,-0.01,-0.088,-0.712
0.015,0.005,-0.01,-0.01,0.01,-0.005,-0.268,-0.127,-0.078,-0.01,-0.083,-0.712
0.024,0.029,0.005,-0.024,0.01,0.015,-0.273,-0.132,-0.078,-0.015,-0.083,-0.712
0.015,0.01,-0.005,-0.01,0.01,0.0,-0.278,-0.137,-0.078,-0.01,-0.078,-0.703
0.024,0.024,0.0,-0.024,0.01,0.01,-0.288,-0.151,-0.093,-0.01,-0.078,-0.703
0.024,0.024,0.0,-0.024,0.01,0.01,-0.298,-0.161,-0.102,-0.01,-0.078,-0.708
0.01,0.015,0.005,-0.01,0.0,0.01,-0.298,-0.166,-0.098,-0.015,-0.078,-0.717
0.01,0.02,0.01,-0.015,0.0,0.015,-0.298,-0.166,-0.098,-0.015,-0.073,-0.722
0.01,0.029,0.02,-0.02,-0.005,0.024,-0.298,-0.171,-0.102,-0.015,-0.078,-0.727
0.005,0.029,0.024,-0.015,-0.01,0.024,-0.298,-0.171,-0.107,-0.01,-0.078,-0.732
0.015,0.024,0.01,-0.02,0.0,0.015,-0.278,-0.166,-0.102,-0.01,-0.073,-0.742
0.024,0.024,0.0,-0.024,0.01,0.01,-0.278,-0.161,-0.098,0.0,-0.068,-0.732
0.01,0.02,0.01,-0.015,0.0,0.015,-0.298,-0.161,-0.093,0.01,-0.068,-0.727
0.01,0.005,-0.005,-0.005,0.005,0.0,-0.303,-0.156,-0.083,0.024,-0.054,-0.717
0.024,0.015,-0.01,-0.02,0.015,0.0,-0.303,-0.161,-0.093,0.015,-0.049,-0.717
0.039,0.039,0.0,-0.039,0.02,0.02,-0.298,-0.156,-0.098,0.015,-0.039,-0.722
0.039,0.039,0.0,-0.039,0.02,0.02,-0.298,-0.161,-0.102,0.015,-0.034,-0.737
0.024,0.02,-0.005,-0.02,0.015,0.005,-0.288,-0.166,-0.107,0.015,-0.034,-0.742
0.034,0.054,0.02,-0.044,0.005,0.034,-0.288,-0.161,-0.102,0.029,-0.034,-0.742
0.044,0.059,0.015,-0.049,0.015,0.034,-0.273,-0.156,-0.098,0.044,-0.015,-0.732
0.044,0.059,0.015,-0.049,0.015,0.034,-0.268,-0.156,-0.098,0.054,-0.01,-0.732
0.049,0.059,0.01,-0.054,0.02,0.034,-0.273,-0.156,-0.102,0.054,-0.01,-0.732
0.034,0.054,0.02,-0.044,0.005,0.034,-0.273,-0.146,-0.098,0.054,0.0,-0.727
0.024,0.044,0.02,-0.034,0.0,0.029,-0.273,-0.146,-0.093,0.054,0.01,-0.727
0.02,0.024,0.005,-0.02,0.005,0.015,-0.273,-0.146,-0.083,0.083,0.02,-0.727
0.024,0.044,0.02,-0.034,0.0,0.029,-0.273,-0.146,-0.078,0.083,0.024,-0.722
0.029,0.029,0.0,-0.029,0.015,0.015,-0.303,-0.161,-0.088,0.083,0.024,-0.722
0.024,0.029,0.005,-0.024,0.01,0.015,-0.317,-0.171,-0.093,0.088,0.024,-0.722
0.029,0.034,0.005,-0.029,0.01,0.02,-0.332,-0.181,-0.098,0.083,0.024,-0.732
0.039,0.034,-0.005,-0.034,0.02,0.015,-0.342,-0.195,-0.102,0.088,0.029,-0.737
0.024,0.029,0.005,-0.024,0.01,0.015,-0.342,-0.21,-0.102,0.088,0.034,-0.737
0.024,0.029,0.005,-0.024,0.01,0.015,-0.346,-0.215,-0.107,0.098,0.054,-0.742
0.029,0.034,0.005,-0.029,0.01,0.02,-0.351,-0.224,-0.107,0.107,0.059,-0.742
0.024,0.029,0.005,-0.024,0.01,0.015,-0.351,-0.234,-0.112,0.112,0.063,-0.747
0.024,0.039,0.015,-0.029,0.005,0.024,-0.351,-0.234,-0.117,0.112,0.073,-0.737
0.029,0.039,0.01,-0.034,0.01,0.024,-0.351,-0.234,-0.117,0.127,0.083,-0.722
0.039,0.034,-0.005,-0.034,0.02,0.015,-0.371,-0.234,-0.117,0.137,0.088,-0.717
0.044,0.034,-0.01,-0.039,0.024,0.01,-0.376,-0.239,-0.107,0.137,0.098,-0.717
0.059,0.049,-0.01,-0.054,0.034,0.02,-0.366,-0.234,-0.098,0.142,0.107,-0.712
0.059,0.054,-0.005,-0.054,0.029,0.024,-0.371,-0.234,-0.098,0.151,0.117,-0.712
0.039,0.044,0.005,-0.039,0.015,0.024,-0.371,-0.244,-0.098,0.161,0.122,-0.717
0.049,0.059,0.01,-0.054,0.02,0.034,-0.381,-0.254,-0.098,0.161,0.127,-0.732
0.044,0.059,0.015,-0.049,0.015,0.034,-0.376,-0.249,-0.088,0.161,0.132,-0.722
0.044,0.049,0.005,-0.044,0.02,0.024,-0.366,-0.244,-0.088,0.166,0.142,-0.722
0.044,0.039,-0.005,-0.039,0.024,0.015,-0.361,-0.239,-0.093,0.166,0.146,-0.722
0.044,0.034,-0.01,-0.039,0.024,0.01,-0.356,-0.234,-0.093,0.166,0.151,-0.722
0.049,0.044,-0.005,-0.044,0.024,0.02,-0.346,-0.244,-0.098,0.166,0.146,-0.722
0.059,0.054,-0.005,-0.054,0.029,0.024,-0.351,-0.244,-0.098,0.176,0.156,-0.727
0.068,0.068,0.0,-0.068,0.034,0.034,-0.351,-0.254,-0.102,0.171,0.156,-0.732
0.073,0.054,-0.02,-0.063,0.044,0.015,-0.351,-0.264,-0.107,0.166,0.156,-0.737
0.059,0.049,-0.01,-0.054,0.034,0.02,-0.332,-0.259,-0.098,0.171,0.166,-0.727
0.059,0.059,0.0,-0.059,0.029,0.029,-0.332,-0.254,-0.098,0.176,0.171,-0.727
0.044,0.063,0.02,-0.054,0.01,0.039,-0.342,-0.244,-0.093,0.181,0.176,-0.727
0.01,0.044,0.034,-0.024,-0.015,0.039,-0.342,-0.229,-0.083,0.185,0.176,-0.727
0.024,0.059,0.034,-0.039,-0.005,0.044,-0.337,-0.234,-0.073,0.19,0.181,-0.727
0.054,0.073,0.02,-0.063,0.015,0.044,-0.342,-0.234,-0.073,0.195,0.19,-0.722
0.059,0.078,0.02,-0.068,0.02,0.049,-0.327,-0.234,-0.063,0.2,0.2,-0.722
0.054,0.083,0.029,-0.068,0.01,0.054,-0.317,-0.239,-0.063,0.205,0.21,-0.722
0.063,0.102,0.039,-0.083,0.01,0.068,-0.317,-0.234,-0.063,0.21,0.2,-0.722
0.073,0.112,0.039,-0.093,0.015,0.073,-0.327,-0.234,-0.059,0.21,0.21,-0.727
0.083,0.122,0.039,-0.102,0.02,0.078,-0.327,-0.229,-0.054,0.21,0.21,-0.732
0.098,0.132,0.034,-0.112,0.029,0.083,-0.332,-0.224,-0.049,0.205,0.22,-0.747
0.083,0.132,0.049,-0.107,0.015,0.088,-0.327,-0.21,-0.034,0.205,0.229,-0.742
0.073,0.127,0.054,-0.098,0.01,0.088,-0.322,-0.2,-0.024,0.205,0.22,-0.732
0.068,0.117,0.049,-0.093,0.01,0.083,-0.317,-0.195,-0.02,0.2,0.215,-0.732
0.063,0.112,0.049,-0.088,0.005,0.078,-0.312,-0.19,-0.02,0.195,0.21,-0.737
0.059,0.117,0.059,-0.088,0.0,0.088,-0.322,-0.19,-0.01,0.19,0.195,-0.747
0.054,0.117,0.063,-0.083,-0.005,0.088,-0.327,-0.19,-0.01,0.185,0.195,-0.761
0.049,0.122,0.073,-0.083,-0.015,0.098,-0.351,-0.2,-0.024,0.171,0.19,-0.766
0.044,0.127,0.083,-0.083,-0.02,0.102,-0.356,-0.19,-0.01,0.171,0.185,-0.771
0.049,0.122,0.073,-0.083,-0.015,0.098,-0.356,-0.181,-0.005,0.176,0.185,-0.776
0.054,0.127,0.073,-0.088,-0.01,0.098,-0.361,-0.176,-0.005,0.166,0.185,-0.781
0.054,0.132,0.078,-0.093,-0.015,0.102,-0.361,-0.171,0.0,0.161,0.171,-0.781
0.049,0.132,0.083,-0.088,-0.02,0.107,-0.356,-0.156,0.005,0.166,0.171,-0.781
0.039,0.137,0.098,-0.088,-0.029,0.117,-0.356,-0.166,0.015,0.161,0.181,-0.791
0.059,0.137,0.078,-0.098,-0.01,0.107,-0.356,-0.166,0.015,0.151,0.181,-0.791
0.049,0.132,0.083,-0.088,-0.02,0.107,-0.356,-0.151,0.015,0.151,0.185,-0.791
0.049,0.127,0.078,-0.088,-0.015,0.102,-0.356,-0.137,0.02,0.137,0.176,-0.791
0.059,0.142,0.083,-0.098,-0.015,0.112,-0.361,-0.146,0.015,0.122,0.156,-0.805
0.059,0.142,0.083,-0.098,-0.015,0.112,-0.346,-0.146,0.024,0.117,0.151,-0.81
0.054,0.142,0.088,-0.098,-0.02,0.112,-0.337,-0.142,0.024,0.107,0.142,-0.82
0.063,0.146,0.083,-0.102,-0.01,0.112,-0.332,-0.127,0.02,0.093,0.132,-0.834
0.059,0.146,0.088,-0.102,-0.015,0.117,-0.337,-0.127,0.02,0.093,0.137,-0.854
0.054,0.146,0.093,-0.098,-0.02,0.117,-0.322,-0.117,0.024,0.088,0.132,-0.864
0.054,0.156,0.102,-0.102,-0.024,0.127,-0.322,-0.112,0.029,0.078,0.122,-0.874
0.049,0.156,0.107,-0.102,-0.029,0.132,-0.322,-0.112,0.034,0.063,0.112,-0.888
0.044,0.127,0.083,-0.083,-0.02,0.102,-0.332,-0.122,0.02,0.059,0.107,-0.898
0.034,0.122,0.088,-0.078,-0.029,0.102,-0.332,-0.122,0.024,0.044,0.107,-0.908
0.034,0.122,0.088,-0.078,-0.029,0.102,-0.322,-0.127,0.02,0.029,0.093,-0.917
0.034,0.117,0.083,-0.073,-0.024,0.098,-0.317,-0.137,0.02,0.024,0.088,-0.937
0.044,0.122,0.078,-0.083,-0.02,0.098,-0.303,-0.117,0.034,0.034,0.078,-0.952
0.039,0.122,0.083,-0.078,-0.024,0.102,-0.288,-0.102,0.034,0.034,0.068,-0.956
0.034,0.132,0.098,-0.083,-0.034,0.112,-0.278,-0.083,0.034,0.015,0.059,-0.961
0.034,0.132,0.098,-0.083,-0.034,0.112,-0.264,-0.068,0.044,0.005,0.054,-0.966
0.034,0.117,0.083,-0.073,-0.024,0.098,-0.259,-0.078,0.044,0.015,0.049,-0.971
0.034,0.112,0.078,-0.073,-0.024,0.093,-0.254,-0.068,0.044,0.005,0.049,-0.966
0.034,0.102,0.068,-0.068,-0.02,0.083,-0.259,-0.073,0.044,0.005,0.049,-0.976
0.029,0.088,0.059,-0.059,-0.015,0.073,-0.273,-0.073,0.044,0.0,0.039,-0.991
0.029,0.093,0.063,-0.059,-0.02,0.078,-0.293,-0.083,0.034,0.0,0.024,-1.005
0.029,0.093,0.063,-0.059,-0.02,0.078,-0.298,-0.078,0.039,-0.005,0.024,-1.015
0.034,0.098,0.063,-0.063,-0.015,0.078,-0.283,-0.073,0.024,-0.005,0.024,-1.02
0.039,0.102,0.063,-0.068,-0.015,0.083,-0.293,-0.083,0.015,-0.01,0.02,-1.025
0.024,0.083,0.059,-0.054,-0.02,0.068,-0.298,-0.093,0.005,-0.02,0.005,-1.044
0.01,0.059,0.049,-0.034,-0.02,0.054,-0.288,-0.093,0.005,-0.034,-0.005,-1.054
0.005,0.049,0.044,-0.024,-0.02,0.044,-0.283,-0.093,0.005,-0.044,-0.015,-1.069
0.0,0.049,0.049,-0.024,-0.024,0.049,-0.278,-0.093,0.01,-0.054,-0.024,-1.078
-0.015,0.02,0.034,0.0,-0.024,0.024,-0.254,-0.068,0.01,-0.054,-0.02,-1.088
-0.02,0.015,0.034,0.005,-0.029,0.024,-0.234,-0.073,0.01,-0.054,-0.015,-1.098
-0.034,0.01,0.044,0.015,-0.039,0.024,-0.224,-0.078,0.01,-0.054,-0.015,-1.103
-0.039,0.005,0.044,0.02,-0.044,0.024,-0.21,-0.063,0.005,-0.054,-0.015,-1.108
-0.024,0.005,0.029,0.01,-0.029,0.015,-0.2,-0.059,0.015,-0.073,-0.024,-1.127
-0.005,0.005,0.01,0.0,-0.01,0.005,-0.2,-0.059,-0.005,-0.083,-0.034,-1.137
0.01,0.005,-0.005,-0.005,0.005,0.0,-0.2,-0.054,-0.01,-0.088,-0.044,-1.132
0.02,-0.005,-0.024,-0.005,0.02,-0.015,-0.2,-0.049,-0.01,-0.093,-0.049,-1.142
0.005,-0.01,-0.015,0.005,0.01,-0.015,-0.19,-0.044,-0.02,-0.102,-0.059,-1.157
-0.005,-0.015,-0.01,0.01,0.0,-0.015,-0.181,-0.044,-0.024,-0.122,-0.073,-1.166
-0.015,-0.015,0.0,0.015,-0.01,-0.01,-0.171,-0.044,-0.024,-0.122,-0.083,-1.176
-0.024,-0.02,0.005,0.024,-0.015,-0.01,-0.151,-0.029,-0.015,-0.122,-0.083,-1.166
-0.034,-0.029,0.005,0.034,-0.02,-0.015,-0.137,-0.029,-0.024,-0.132,-0.083,-1.176
-0.039,-0.029,0.01,0.034,-0.024,-0.01,-0.127,-0.029,-0.024,-0.137,-0.078,-1.186
-0.039,-0.054,-0.015,0.049,-0.015,-0.034,-0.117,-0.029,-0.024,-0.137,-0.073,-1.181
-0.039,-0.054,-0.015,0.049,-0.015,-0.034,-0.112,-0.024,-0.034,-0.132,-0.078,-1.191
-0.029,-0.044,-0.015,0.039,-0.01,-0.029,-0.112,-0.01,-0.024,-0.137,-0.088,-1.2
-0.024,-0.039,-0.015,0.034,-0.005,-0.029,-0.102,-0.01,-0.034,-0.137,-0.088,-1.215
-0.02,-0.034,-0.015,0.029,-0.005,-0.024,-0.102,-0.01,-0.034,-0.142,-0.093,-1.225
-0.005,-0.029,-0.024,0.02,0.01,-0.029,-0.102,-0.01,-0.034,-0.146,-0.093,-1.235
-0.01,-0.029,-0.02,0.02,0.005,-0.024,-0.093,-0.005,-0.024,-0.142,-0.078,-1.235
-0.01,-0.039,-0.029,0.024,0.01,-0.034,-0.078,-0.005,-0.024,-0.146,-0.073,-1.23
-0.005,-0.029,-0.024,0.02,0.01,-0.029,-0.073,0.0,-0.024,-0.142,-0.068,-1.23
0.005,-0.029,-0.034,0.015,0.02,-0.034,-0.068,0.005,-0.02,-0.137,-0.059,-1.23
-0.005,-0.024,-0.02,0.015,0.005,-0.024,-0.059,0.01,-0.015,-0.146,-0.063,-1.244
0.0,-0.024,-0.024,0.015,0.01,-0.024,-0.054,0.01,-0.015,-0.146,-0.068,-1.249
0.015,-0.02,-0.034,0.005,0.024,-0.029,-0.049,0.015,-0.015,-0.146,-0.078,-1.259
0.02,-0.02,-0.039,0.0,0.029,-0.029,-0.039,0.02,-0.015,-0.132,-0.083,-1.269
0.005,-0.024,-0.029,0.01,0.015,-0.029,-0.049,0.02,-0.015,-0.142,-0.088,-1.279
0.0,-0.01,-0.01,0.005,0.005,-0.01,-0.049,0.015,-0.01,-0.142,-0.088,-1.288
-0.015,-0.049,-0.034,0.034,0.01,-0.044,-0.049,0.015,-0.005,-0.142,-0.083,-1.288
-0.034,-0.059,-0.024,0.049,-0.005,-0.044,-0.049,0.024,0.005,-0.137,-0.083,-1.274
-0.044,-0.054,-0.01,0.049,-0.02,-0.034,-0.059,0.02,-0.005,-0.137,-0.083,-1.288
-0.049,-0.059,-0.01,0.054,-0.02,-0.034,-0.054,0.024,-0.005,-0.137,-0.078,-1.293
-0.049,-0.068,-0.02,0.059,-0.015,-0.044,-0.049,0.029,-0.005,-0.137,-0.073,-1.303
-0.044,-0.063,-0.02,0.054,-0.015,-0.044,-0.049,0.034,-0.005,-0.137,-0.063,-1.308
-0.034,-0.044,-0.01,0.039,-0.015,-0.029,-0.054,0.034,0.0,-0.122,-0.054,-1.308
-0.024,-0.029,-0.005,0.029,-0.01,-0.02,-0.059,0.034,0.005,-0.112,-0.054,-1.308
-0.015,-0.015,0.0,0.015,-0.01,-0.01,-0.063,0.034,0.01,-0.102,-0.054,-1.308
0.0,0.005,0.005,0.0,-0.005,0.005,-0.063,0.034,0.015,-0.088,-0.054,-1.298
-0.01,0.0,0.01,0.005,-0.01,0.005,-0.063,0.044,0.015,-0.083,-0.044,-1.308
-0.01,0.0,0.01,0.005,-0.01,0.005,-0.073,0.044,0.02,-0.083,-0.039,-1.313
0.0,-0.005,-0.005,0.005,0.0,-0.005,-0.083,0.039,0.02,-0.093,-0.039,-1.318
0.0,-0.01,-0.01,0.005,0.005,-0.01,-0.093,0.039,0.02,-0.093,-0.039,-1.322
-0.005,-0.029,-0.024,0.02,0.01,-0.029,-0.093,0.034,0.02,-0.073,-0.029,-1.327
-0.01,-0.029,-0.02,0.02,0.005,-0.024,-0.098,0.029,0.015,-0.073,-0.029,-1.327
-0.015,-0.015,0.0,0.015,-0.01,-0.01,-0.098,0.024,0.015,-0.063,-0.029,-1.332
-0.02,-0.015,0.005,0.02,-0.015,-0.005,-0.098,0.015,0.01,-0.063,-0.029,-1.337
0.0,-0.005,-0.005,0.005,0.0,-0.005,-0.112,0.005,0.005,-0.063,-0.024,-1.362
-0.005,0.01,0.015,0.0,-0.01,0.01,-0.112,0.0,0.005,-0.063,-0.024,-1.362
-0.015,-0.005,0.01,0.01,-0.015,0.0,-0.112,0.0,0.0,-0.063,-0.024,-1.352
-0.02,-0.02,0.0,0.02,-0.01,-0.01,-0.107,0.0,-0.005,-0.059,-0.024,-1.337
-0.005,0.005,0.01,0.0,-0.01,0.005,-0.112,-0.02,-0.005,-0.054,-0.01,-1.327
0.0,0.01,0.01,-0.005,-0.005,0.01,-0.117,-0.024,-0.005,-0.044,0.0,-1.332
0.005,0.015,0.01,-0.01,-0.005,0.01,-0.122,-0.034,-0.005,-0.034,0.015,-1.337
0.024,0.044,0.02,-0.034,0.0,0.029,-0.127,-0.044,-0.005,-0.029,0.024,-1.342
0.034,0.054,0.02,-0.044,0.005,0.034,-0.146,-0.049,-0.005,-0.029,0.015,-1.352
0.02,0.039,0.02,-0.029,0.0,0.029,-0.146,-0.054,0.0,-0.024,0.015,-1.366
0.02,0.049,0.029,-0.034,-0.005,0.039,-0.156,-0.059,0.0,-0.02,0.02,-1.366
0.02,0.059,0.039,-0.039,-0.01,0.049,-0.171,-0.068,0.0,-0.02,0.02,-1.366
-0.01,0.02,0.029,-0.005,-0.02,0.024,-0.19,-0.078,-0.02,-0.02,0.029,-1.381
-0.039,-0.01,0.029,0.024,-0.034,0.01,-0.195,-0.088,-0.029,-0.02,0.029,-1.386
-0.029,0.0,0.029,0.015,-0.029,0.015,-0.2,-0.093,-0.029,-0.015,0.029,-1.386
-0.034,-0.005,0.029,0.02,-0.034,0.01,-0.205,-0.102,-0.024,-0.005,0.034,-1.376
-0.015,0.005,0.02,0.005,-0.02,0.01,-0.21,-0.102,-0.024,-0.015,0.024,-1.381
-0.005,0.005,0.01,0.0,-0.01,0.005,-0.215,-0.102,-0.024,-0.015,0.024,-1.386
0.0,0.015,0.015,-0.005,-0.01,0.015,-0.215,-0.102,-0.02,-0.015,0.015,-1.391
0.01,0.029,0.02,-0.02,-0.005,0.024,-0.215,-0.107,-0.02,-0.015,0.015,-1.396
0.01,0.024,0.015,-0.015,-0.005,0.02,-0.224,-0.102,-0.01,-0.005,0.02,-1.405
0.005,0.024,0.02,-0.015,-0.01,0.02,-0.229,-0.098,-0.01,-0.005,0.024,-1.405
-0.015,0.015,0.029,0.0,-0.024,0.02,-0.229,-0.102,-0.01,-0.005,0.034,-1.401
0.0,0.015,0.015,-0.005,-0.01,0.015,-0.229,-0.098,-0.01,-0.005,0.044,-1.401
0.015,0.02,0.005,-0.015,0.005,0.01,-0.224,-0.098,-0.015,-0.01,0.044,-1.405
0.01,0.02,0.01,-0.015,0.0,0.015,-0.215,-0.098,-0.015,-0.01,0.044,-1.41
-0.005,0.01,0.015,0.0,-0.01,0.01,-0.215,-0.098,-0.015,-0.01,0.044,-1.42
-0.01,0.02,0.029,-0.005,-0.02,0.024,-0.22,-0.102,-0.02,-0.02,0.039,-1.43
-0.01,0.039,0.049,-0.015,-0.029,0.044,-0.215,-0.112,-0.024,-0.01,0.044,-1.435
-0.015,0.02,0.034,0.0,-0.024,0.024,-0.205,-0.102,-0.02,-0.01,0.044,-1.444
-0.02,0.029,0.049,-0.005,-0.034,0.039,-0.195,-0.093,-0.015,-0.01,0.044,-1.449
-0.02,0.029,0.049,-0.005,-0.034,0.039,-0.181,-0.093,-0.01,-0.01,0.034,-1.454
-0.02,0.02,0.039,0.0,-0.029,0.029,-0.166,-0.068,0.01,0.0,0.044,-1.469
-0.015,0.005,0.02,0.005,-0.02,0.01,-0.156,-0.063,0.01,0.0,0.044,-1.474
0.005,0.015,0.01,-0.01,-0.005,0.01,-0.146,-0.059,0.005,-0.005,0.039,-1.479
0.01,0.01,0.0,-0.01,0.005,0.005,-0.127,-0.054,0.005,-0.005,0.039,-1.484
0.01,0.015,0.005,-0.01,0.0,0.01,-0.117,-0.044,0.01,-0.01,0.039,-1.493
0.0,0.015,0.015,-0.005,-0.01,0.015,-0.117,-0.044,0.015,-0.015,0.029,-1.498
0.015,0.015,0.0,-0.015,0.005,0.005,-0.107,-0.039,0.015,-0.015,0.029,-1.498
0.015,0.015,0.0,-0.015,0.005,0.005,-0.107,-0.034,0.02,-0.015,0.029,-1.508
0.01,0.005,-0.005,-0.005,0.005,0.0,-0.102,-0.029,0.02,-0.02,0.039,-1.518
0.01,0.005,-0.005,-0.005,0.005,0.0,-0.093,-0.039,0.02,-0.015,0.039,-1.527
0.005,0.0,-0.005,0.0,0.005,-0.005,-0.088,-0.034,0.02,-0.01,0.039,-1.527
0.005,0.0,-0.005,0.0,0.005,-0.005,-0.088,-0.024,0.02,-0.005,0.039,-1.523
0.029,0.015,-0.015,-0.02,0.02,0.0,-0.083,-0.024,0.02,-0.005,0.034,-1.532
0.039,0.029,-0.01,-0.034,0.024,0.01,-0.068,-0.015,0.02,-0.005,0.034,-1.527
0.029,0.01,-0.02,-0.02,0.024,-0.005,-0.063,-0.015,0.02,-0.015,0.034,-1.532
0.02,0.005,-0.015,-0.01,0.015,-0.005,-0.063,-0.01,0.015,-0.02,0.034,-1.547
0.005,0.005,0.0,-0.005,0.0,0.0,-0.063,-0.02,0.005,-0.034,0.024,-1.576
0.0,0.0,0.0,0.0,0.0,0.0,-0.059,-0.02,0.005,-0.034,0.015,-1.576
0.01,0.0,-0.01,-0.005,0.01,-0.005,-0.059,-0.034,0.0,-0.034,0.01,-1.586
0.005,0.005,0.0,-0.005,0.0,0.0,-0.054,-0.034,0.0,-0.029,0.01,-1.596
0.015,0.015,0.0,-0.015,0.005,0.005,-0.044,-0.01,0.015,-0.024,0.015,-1.596
0.015,0.01,-0.005,-0.01,0.01,0.0,-0.044,-0.01,0.015,-0.024,0.02,-1.596
0.015,0.005,-0.01,-0.01,0.01,-0.005,-0.049,-0.024,0.01,-0.034,0.015,-1.606
0.015,0.0,-0.015,-0.005,0.015,-0.01,-0.049,-0.034,0.005,-0.044,0.01,-1.615
0.0,-0.01,-0.01,0.005,0.005,-0.01,-0.044,-0.02,-0.005,-0.054,0.0,-1.63
0.015,0.0,-0.015,-0.005,0.015,-0.01,-0.039,-0.015,-0.005,-0.054,0.0,-1.635
0.01,0.0,-0.01,-0.005,0.01,-0.005,-0.034,-0.01,0.0,-0.054,0.0,-1.64
0.005,0.0,-0.005,0.0,0.005,-0.005,-0.024,-0.005,0.0,-0.049,0.005,-1.635
-0.005,0.0,0.005,0.005,-0.005,0.0,-0.024,-0.015,-0.005,-0.049,0.0,-1.645
-0.005,0.005,0.01,0.0,-0.01,0.005,-0.024,-0.015,-0.005,-0.054,-0.01,-1.654
-0.02,-0.015,0.005,0.02,-0.015,-0.005,-0.02,-0.015,-0.01,-0.054,-0.015,-1.669
-0.029,-0.02,0.01,0.024,-0.02,-0.005,-0.02,-0.024,-0.01,-0.059,-0.02,-1.684
-0.005,-0.01,-0.005,0.01,0.0,-0.01,-0.015,-0.015,-0.01,-0.059,-0.024,-1.703
0.02,0.015,-0.005,-0.015,0.01,0.005,0.015,0.015,0.01,-0.049,0.005,-1.684
0.0,-0.01,-0.01,0.005,0.005,-0.01,0.01,0.01,0.01,-0.059,0.0,-1.698
0.01,-0.005,-0.015,0.0,0.01,-0.01,0.02,0.02,0.0,-0.068,-0.01,-1.703
0.01,0.0,-0.01,-0.005,0.01,-0.005,0.02,0.02,0.0,-0.068,-0.01,-1.708
0.01,0.005,-0.005,-0.005,0.005,0.0,0.02,0.02,0.0,-0.068,-0.01,-1.713
0.01,0.01,0.0,-0.01,0.005,0.005,0.02,0.02,0.0,-0.068,-0.01,-1.718
0.0,-0.01,-0.01,0.005,0.005,-0.01,0.02,0.01,0.0,-0.078,-0.015,-1.728
-0.02,-0.029,-0.01,0.024,-0.005,-0.02,0.02,0.01,0.005,-0.073,-0.015,-1.732
-0.02,-0.024,-0.005,0.024,-0.01,-0.015,0.01,0.01,0.005,-0.073,-0.02,-1.737
-0.024,-0.02,0.005,0.024,-0.015,-0.01,0.005,0.0,-0.005,-0.083,-0.024,-1.747
-0.02,-0.024,-0.005,0.024,-0.01,-0.015,0.005,0.01,-0.015,-0.088,-0.029,-1.767
-0.015,-0.015,0.0,0.015,-0.01,-0.01,0.0,0.0,-0.015,-0.088,-0.029,-1.771
-0.01,-0.005,0.005,0.01,-0.01,0.0,0.0,0.0,-0.015,-0.083,-0.029,-1.776
0.0,-0.015,-0.015,0.01,0.005,-0.015,0.0,0.0,-0.015,-0.073,-0.029,-1.781
0.0,-0.024,-0.024,0.015,0.01,-0.024,-0.044,-0.024,-0.024,-0.098,-0.039,-1.796
-0.015,-0.029,-0.015,0.024,0.0,-0.024,-0.083,-0.039,-0.039,-0.102,-0.049,-1.806
-0.015,-0.029,-0.015,0.024,0.0,-0.024,-0.102,-0.054,-0.049,-0.107,-0.054,-1.815
-0.015,-0.029,-0.015,0.024,0.0,-0.024,-0.132,-0.063,-0.059,-0.112,-0.054,-1.82
-0.01,-0.02,-0.01,0.015,0.0,-0.015,-0.161,-0.078,-0.073,-0.127,-0.063,-1.835
-0.005,-0.02,-0.015,0.015,0.005,-0.02,-0.181,-0.093,-0.073,-0.127,-0.068,-1.84
0.0,-0.02,-0.02,0.01,0.01,-0.02,-0.195,-0.107,-0.073,-0.127,-0.068,-1.845
0.01,-0.02,-0.029,0.005,0.02,-0.024,-0.22,-0.122,-0.078,-0.127,-0.078,-1.85
0.005,-0.02,-0.024,0.01,0.015,-0.024,-0.22,-0.122,-0.078,-0.122,-0.073,-1.864
-0.005,-0.029,-0.024,0.02,0.01,-0.029,-0.22,-0.122,-0.078,-0.117,-0.068,-1.859
-0.01,-0.02,-0.01,0.015,0.0,-0.015,-0.205,-0.117,-0.078,-0.112,-0.059,-1.864
-0.01,-0.01,0.0,0.01,-0.005,-0.005,-0.205,-0.117,-0.078,-0.107,-0.054,-1.869
-0.01,-0.02,-0.01,0.015,0.0,-0.015,-0.205,-0.117,-0.073,-0.112,-0.059,-1.884
-0.01,-0.02,-0.01,0.015,0.0,-0.015,-0.205,-0.117,-0.078,-0.117,-0.063,-1.889
-0.005,-0.02,-0.015,0.015,0.005,-0.02,-0.21,-0.117,-0.088,-0.127,-0.073,-1.898
-0.005,-0.02,-0.015,0.015,0.005,-0.02,-0.21,-0.117,-0.093,-0.132,-0.078,-1.903
0.0,-0.024,-0.024,0.015,0.01,-0.024,-0.2,-0.117,-0.083,-0.127,-0.083,-1.918
0.0,-0.024,-0.024,0.015,0.01,-0.024,-0.2,-0.117,-0.078,-0.127,-0.083,-1.923
0.0,-0.024,-0.024,0.015,0.01,-0.024,-0.195,-0.117,-0.078,-0.127,-0.083,-1.937
0.0,-0.024,-0.024,0.015,0.01,-0.024,-0.195,-0.112,-0.083,-0.122,-0.078,-1.932
-0.01,-0.015,-0.005,0.015,-0.005,-0.01,-0.19,-0.102,-0.073,-0.132,-0.078,-1.942
-0.01,-0.015,-0.005,0.015,-0.005,-0.01,-0.19,-0.107,-0.083,-0.142,-0.083,-1.957
-0.015,-0.024,-0.01,0.02,-0.005,-0.02,-0.19,-0.107,-0.083,-0.142,-0.083,-1.967
-0.015,-0.024,-0.01,0.02,-0.005,-0.02,-0.19,-0.102,-0.078,-0.142,-0.083,-1.972
-0.015,-0.02,-0.005,0.02,-0.005,-0.015,-0.181,-0.102,-0.078,-0.132,-0.083,-1.981
-0.015,-0.024,-0.01,0.02,-0.005,-0.02,-0.181,-0.102,-0.078,-0.127,-0.073,-1.981
-0.02,-0.029,-0.01,0.024,-0.005,-0.02,-0.176,-0.102,-0.068,-0.127,-0.073,-1.981
-0.02,-0.034,-0.015,0.029,-0.005,-0.024,-0.176,-0.102,-0.078,-0.132,-0.083,-1.986
-0.01,-0.024,-0.015,0.02,0.0,-0.02,-0.181,-0.112,-0.078,-0.122,-0.083,-1.996
-0.015,-0.029,-0.015,0.024,0.0,-0.024,-0.176,-0.098,-0.073,-0.117,-0.078,-2.001
-0.015,-0.029,-0.015,0.024,0.0,-0.024,-0.171,-0.098,-0.068,-0.112,-0.078,-2.011
-0.005,-0.015,-0.01,0.01,0.0,-0.015,-0.171,-0.098,-0.068,-0.112,-0.078,-2.02
-0.029,-0.024,0.005,0.029,-0.02,-0.01,-0.166,-0.083,-0.063,-0.117,-0.083,-2.025
-0.039,-0.029,0.01,0.034,-0.024,-0.01,-0.161,-0.083,-0.063,-0.122,-0.083,-2.035
-0.029,-0.01,0.02,0.02,-0.024,0.005,-0.151,-0.083,-0.063,-0.122,-0.083,-2.04
-0.024,-0.005,0.02,0.015,-0.024,0.005,-0.146,-0.083,-0.063,-0.122,-0.088,-2.045
-0.01,-0.024,-0.015,0.02,0.0,-0.02,-0.142,-0.073,-0.063,-0.122,-0.088,-2.05
-0.015,-0.024,-0.01,0.02,-0.005,-0.02,-0.142,-0.078,-0.068,-0.122,-0.088,-2.054
0.0,-0.02,-0.02,0.01,0.01,-0.02,-0.142,-0.078,-0.068,-0.117,-0.088,-2.059
0.02,-0.02,-0.039,0.0,0.029,-0.029,-0.137,-0.073,-0.059,-0.117,-0.088,-2.064
0.005,-0.02,-0.024,0.01,0.015,-0.024,-0.127,-0.063,-0.049,-0.117,-0.088,-2.084
0.0,-0.029,-0.029,0.015,0.015,-0.029,-0.127,-0.063,-0.059,-0.117,-0.088,-2.094
-0.01,-0.034,-0.024,0.024,0.005,-0.029,-0.122,-0.063,-0.059,-0.117,-0.088,-2.103
-0.015,-0.034,-0.02,0.024,0.0,-0.029,-0.122,-0.063,-0.054,-0.117,-0.088,-2.113
-0.024,-0.024,0.0,0.024,-0.015,-0.015,-0.132,-0.068,-0.059,-0.122,-0.093,-2.133
-0.024,-0.034,-0.01,0.029,-0.01,-0.024,-0.132,-0.068,-0.063,-0.127,-0.098,-2.137
-0.02,-0.034,-0.015,0.029,-0.005,-0.024,-0.132,-0.068,-0.068,-0.132,-0.102,-2.142
-0.02,-0.029,-0.01,0.024,-0.005,-0.02,-0.132,-0.068,-0.073,-0.137,-0.107,-2.147
-0.029,-0.039,-0.01,0.034,-0.01,-0.024,-0.127,-0.068,-0.083,-0.146,-0.098,-2.162
-0.034,-0.049,-0.015,0.044,-0.01,-0.034,-0.122,-0.068,-0.083,-0.146,-0.098,-2.172
-0.034,-0.049,-0.015,0.044,-0.01,-0.034,-0.117,-0.073,-0.093,-0.156,-0.098,-2.181
-0.034,-0.044,-0.01,0.039,-0.015,-0.029,-0.107,-0.073,-0.093,-0.156,-0.112,-2.186
-0.034,-0.054,-0.02,0.044,-0.01,-0.039,-0.102,-0.068,-0.088,-0.161,-0.122,-2.225
-0.01,-0.034,-0.024,0.024,0.005,-0.029,-0.073,-0.039,-0.049,-0.142,-0.122,-2.225
-0.01,0.005,0.015,0.005,-0.015,0.01,-0.034,0.0,-0.01,-0.127,-0.117,-2.22
-0.01,0.015,0.024,0.0,-0.02,0.02,-0.029,0.02,0.0,-0.117,-0.132,-2.22
-0.044,0.005,0.049,0.02,-0.049,0.024,-0.024,0.005,-0.015,-0.122,-0.132,-2.23
-0.063,0.015,0.078,0.024,-0.073,0.044,-0.034,-0.024,-0.054,-0.098,-0.112,-2.24
-0.054,0.024,0.078,0.015,-0.068,0.049,-0.039,-0.044,-0.054,-0.01,-0.049,-2.23
-0.044,-0.024,0.02,0.034,-0.034,-0.005,-0.029,-0.024,-0.029,0.132,0.068,-2.191
-0.039,-0.078,-0.039,0.059,0.0,-0.059,-0.024,-0.005,0.01,0.259,0.185,-2.152
-0.015,-0.073,-0.059,0.044,0.02,-0.068,-0.024,0.015,0.029,0.342,0.288,-2.113
0.01,-0.088,-0.098,0.039,0.054,-0.093,-0.01,0.049,0.093,0.459,0.42,-2.05
0.02,-0.107,-0.127,0.044,0.073,-0.117,0.0,0.102,0.195,0.63,0.556,-1.976
0.049,-0.049,-0.098,0.0,0.073,-0.073,0.0,0.137,0.273,0.747,0.639,-1.918
0.107,0.044,-0.063,-0.073,0.083,-0.01,-0.02,0.142,0.312,0.81,0.698,-1.864
0.102,0.063,-0.039,-0.083,0.068,0.01,-0.01,0.176,0.386,0.908,0.766,-1.801
0.098,0.073,-0.024,-0.083,0.059,0.024,0.01,0.239,0.498,0.986,0.805,-1.791
0.107,0.127,0.02,-0.117,0.044,0.073,0.039,0.312,0.576,0.976,0.752,-1.81
0.093,0.127,0.034,-0.107,0.029,0.078,0.078,0.371,0.625,0.874,0.62,-1.879
0.068,0.122,0.054,-0.093,0.005,0.088,0.117,0.415,0.595,0.654,0.381,-2.001
-0.015,0.112,0.127,-0.049,-0.073,0.117,0.181,0.425,0.508,0.268,0.02,-2.211
-0.127,0.059,0.185,0.034,-0.156,0.122,0.268,0.439,0.405,-0.176,-0.366,-2.435
-0.21,-0.015,0.195,0.112,-0.205,0.088,0.346,0.478,0.322,-0.566,-0.659,-2.611
-0.22,-0.068,0.151,0.146,-0.185,0.039,0.366,0.478,0.268,-0.83,-0.834,-2.733
-0.195,-0.098,0.098,0.146,-0.146,0.0,0.366,0.454,0.234,-0.942,-0.893,-2.796
-0.195,-0.142,0.054,0.171,-0.127,-0.044,0.381,0.454,0.254,-0.903,-0.864,-2.811
-0.19,-0.161,0.029,0.176,-0.112,-0.068,0.4,0.464,0.303,-0.766,-0.776,-2.811
-0.171,-0.185,-0.015,0.181,-0.078,-0.102,0.39,0.464,0.327,-0.683,-0.712,-2.821
-0.19,-0.224,-0.034,0.21,-0.078,-0.132,0.39,0.483,0.317,-0.669,-0.669,-2.826
-0.181,-0.224,-0.044,0.205,-0.068,-0.137,0.386,0.493,0.307,-0.625,-0.63,-2.811
-0.146,-0.185,-0.039,0.166,-0.054,-0.112,0.376,0.517,0.346,-0.532,-0.566,-2.782
-0.127,-0.185,-0.059,0.156,-0.034,-0.122,0.376,0.561,0.405,-0.449,-0.508,-2.752
-0.127,-0.215,-0.088,0.171,-0.02,-0.151,0.395,0.61,0.415,-0.429,-0.478,-2.738
-0.122,-0.2,-0.078,0.161,-0.024,-0.142,0.39,0.634,0.366,-0.449,-0.478,-2.747
-0.127,-0.19,-0.063,0.161,-0.034,-0.127,0.42,0.669,0.337,-0.454,-0.483,-2.747
-0.142,-0.22,-0.078,0.181,-0.034,-0.151,0.468,0.737,0.317,-0.464,-0.473,-2.752
-0.132,-0.22,-0.088,0.176,-0.024,-0.156,0.508,0.8,0.268,-0.488,-0.483,-2.772
-0.122,-0.19,-0.068,0.156,-0.029,-0.132,0.547,0.834,0.2,-0.512,-0.493,-2.786
-0.137,-0.21,-0.073,0.176,-0.034,-0.142,0.586,0.854,0.127,-0.517,-0.483,-2.786
-0.137,-0.22,-0.083,0.181,-0.029,-0.151,0.61,0.864,0.044,-0.517,-0.473,-2.786
-0.117,-0.205,-0.088,0.161,-0.015,-0.146,0.625,0.854,-0.034,-0.517,-0.454,-2.782
-0.117,-0.215,-0.098,0.166,-0.01,-0.156,0.659,0.844,-0.083,-0.503,-0.439,-2.782
-0.137,-0.234,-0.098,0.185,-0.02,-0.166,0.693,0.869,-0.107,-0.493,-0.41,-2.777
-0.117,-0.215,-0.098,0.166,-0.01,-0.156,0.722,0.898,-0.117,-0.483,-0.4,-2.777
-0.142,-0.205,-0.063,0.176,-0.039,-0.137,0.771,0.908,-0.107,-0.468,-0.4,-2.786
-0.166,-0.215,-0.049,0.19,-0.059,-0.132,0.83,0.878,-0.117,-0.449,-0.39,-2.786
-0.161,-0.19,-0.029,0.176,-0.068,-0.112,0.878,0.859,-0.117,-0.434,-0.381,-2.786
-0.151,-0.181,-0.029,0.166,-0.063,-0.107,0.908,0.834,-0.127,-0.42,-0.366,-2.791
-0.156,-0.195,-0.039,0.176,-0.059,-0.117,0.942,0.81,-0.112,-0.4,-0.366,-2.796
-0.127,-0.176,-0.049,0.151,-0.039,-0.112,0.996,0.805,-0.093,-0.39,-0.346,-2.786
-0.107,-0.146,-0.039,0.127,-0.034,-0.093,0.986,0.727,-0.112,-0.381,-0.332,-2.791
-0.137,-0.176,-0.039,0.156,-0.049,-0.107,0.893,0.571,-0.156,-0.381,-0.322,-2.806
-0.161,-0.2,-0.039,0.181,-0.063,-0.122,0.747,0.415,-0.171,-0.351,-0.312,-2.801
-0.122,-0.142,-0.02,0.132,-0.054,-0.083,0.6,0.239,-0.171,-0.322,-0.288,-2.786
-0.073,-0.083,-0.01,0.078,-0.034,-0.049,0.464,0.073,-0.19,-0.298,-0.264,-2.782
-0.073,-0.078,-0.005,0.078,-0.034,-0.044,0.376,-0.024,-0.19,-0.273,-0.239,-2.782
-0.068,-0.068,0.0,0.068,-0.034,-0.034,0.283,-0.054,-0.19,-0.244,-0.224,-2.762
-0.054,-0.059,-0.005,0.059,-0.024,-0.034,0.195,-0.088,-0.195,-0.234,-0.205,-2.762
-0.054,-0.068,-0.015,0.063,-0.02,-0.044,0.132,-0.093,-0.185,-0.21,-0.185,-2.757
-0.054,-0.059,-0.005,0.059,-0.024,-0.034,0.073,-0.073,-0.137,-0.171,-0.142,-2.752
-0.034,-0.024,0.01,0.029,-0.024,-0.01,0.015,-0.063,-0.117,-0.137,-0.117,-2.743
-0.015,-0.024,-0.01,0.02,-0.005,-0.02,-0.029,-0.063,-0.102,-0.112,-0.112,-2.752
-0.024,-0.034,-0.01,0.029,-0.01,-0.024,-0.059,-0.068,-0.083,-0.093,-0.098,-2.752
-0.024,-0.015,0.01,0.02,-0.02,-0.005,-0.083,-0.083,-0.083,-0.093,-0.102,-2.757
-0.015,-0.005,0.01,0.01,-0.015,0.0,-0.098,-0.088,-0.078,-0.098,-0.102,-2.762
0.005,0.0,-0.005,0.0,0.005,-0.005,-0.098,-0.093,-0.078,-0.098,-0.102,-2.767
0.015,0.015,0.0,-0.015,0.005,0.005,-0.117,-0.093,-0.098,-0.102,-0.107,-2.772
0.01,-0.005,-0.015,0.0,0.01,-0.01,-0.122,-0.107,-0.107,-0.112,-0.098,-2.786
0.01,-0.01,-0.02,0.0,0.015,-0.015,-0.127,-0.117,-0.107,-0.107,-0.088,-2.791
0.015,-0.01,-0.024,0.0,0.02,-0.02,-0.127,-0.122,-0.102,-0.098,-0.083,-2.791
0.015,-0.005,-0.02,-0.005,0.015,-0.015,-0.127,-0.127,-0.102,-0.098,-0.083,-2.796
0.005,-0.024,-0.029,0.01,0.015,-0.029,-0.137,-0.127,-0.093,-0.083,-0.083,-2.811
0.0,-0.024,-0.024,0.015,0.01,-0.024,-0.142,-0.137,-0.093,-0.083,-0.083,-2.826
0.0,-0.024,-0.024,0.015,0.01,-0.024,-0.146,-0.137,-0.093,-0.083,-0.083,-2.835
-0.005,-0.024,-0.02,0.015,0.005,-0.024,-0.146,-0.142,-0.098,-0.083,-0.083,-2.84
-0.01,-0.015,-0.005,0.015,-0.005,-0.01,-0.142,-0.142,-0.098,-0.093,-0.083,-2.855
0.005,-0.01,-0.015,0.005,0.01,-0.015,-0.146,-0.151,-0.107,-0.088,-0.083,-2.86
0.01,-0.005,-0.015,0.0,0.01,-0.01,-0.146,-0.151,-0.112,-0.088,-0.078,-2.865
0.01,-0.01,-0.02,0.0,0.015,-0.015,-0.151,-0.151,-0.117,-0.083,-0.073,-2.874
0.0,-0.02,-0.02,0.01,0.01,-0.02,-0.146,-0.146,-0.107,-0.073,-0.068,-2.884
0.015,-0.005,-0.02,-0.005,0.015,-0.015,-0.146,-0.142,-0.107,-0.068,-0.059,-2.894
0.015,-0.005,-0.02,-0.005,0.015,-0.015,-0.137,-0.137,-0.102,-0.059,-0.049,-2.894
0.005,-0.005,-0.01,0.0,0.005,-0.01,-0.137,-0.137,-0.098,-0.059,-0.044,-2.904
0.015,0.015,0.0,-0.015,0.005,0.005,-0.127,-0.137,-0.088,-0.059,-0.054,-2.913
0.015,0.015,0.0,-0.015,0.005,0.005,-0.127,-0.132,-0.088,-0.059,-0.054,-2.918
0.015,0.005,-0.01,-0.01,0.01,-0.005,-0.127,-0.132,-0.088,-0.049,-0.039,-2.928
0.015,0.005,-0.01,-0.01,0.01,-0.005,-0.132,-0.137,-0.088,-0.049,-0.034,-2.938
0.029,0.034,0.005,-0.029,0.01,0.02,-0.127,-0.137,-0.088,-0.054,-0.034,-2.957
0.024,0.02,-0.005,-0.02,0.015,0.005,-0.132,-0.137,-0.088,-0.049,-0.029,-2.957
0.039,0.039,0.0,-0.039,0.02,0.02,-0.142,-0.146,-0.102,-0.049,-0.029,-2.967
0.044,0.044,0.0,-0.044,0.02,0.02,-0.151,-0.151,-0.112,-0.049,-0.029,-2.982
0.034,0.029,-0.005,-0.029,0.02,0.01,-0.161,-0.151,-0.093,-0.039,-0.024,-2.996
0.029,0.029,0.0,-0.029,0.015,0.015,-0.161,-0.146,-0.088,-0.034,-0.015,-3.006
0.024,0.034,0.01,-0.029,0.005,0.02,-0.161,-0.146,-0.088,-0.029,-0.015,-3.016
0.015,0.029,0.015,-0.02,0.0,0.02,-0.161,-0.142,-0.088,-0.02,-0.01,-3.026
0.024,0.034,0.01,-0.029,0.005,0.02,-0.166,-0.146,-0.088,-0.02,0.005,-3.035
0.034,0.044,0.01,-0.039,0.01,0.024,-0.171,-0.151,-0.088,-0.01,0.01,-3.035
0.02,0.049,0.029,-0.034,-0.005,0.039,-0.195,-0.161,-0.088,0.0,0.01,-3.04
0.02,0.044,0.024,-0.029,-0.005,0.034,-0.205,-0.166,-0.083,0.015,0.024,-3.04
0.024,0.034,0.01,-0.029,0.005,0.02,-0.224,-0.171,-0.088,0.015,0.029,-3.05
0.039,0.049,0.01,-0.044,0.015,0.029,-0.229,-0.166,-0.088,0.015,0.039,-3.055
0.039,0.039,0.0,-0.039,0.02,0.02,-0.239,-0.171,-0.088,0.015,0.044,-3.07
0.024,0.01,-0.015,-0.015,0.02,-0.005,-0.239,-0.176,-0.088,0.015,0.044,-3.074
0.029,0.054,0.024,-0.039,0.0,0.039,-0.283,-0.2,-0.102,0.015,0.039,-3.089
0.044,0.068,0.024,-0.054,0.01,0.044,-0.293,-0.215,-0.107,0.024,0.054,-3.094
0.049,0.078,0.029,-0.063,0.01,0.054,-0.312,-0.234,-0.117,0.029,0.054,-3.109
0.059,0.088,0.029,-0.073,0.015,0.059,-0.342,-0.254,-0.132,0.024,0.049,-3.123
0.044,0.073,0.029,-0.059,0.005,0.049,-0.327,-0.264,-0.132,0.034,0.054,-3.128
0.034,0.063,0.029,-0.049,0.0,0.044,-0.322,-0.264,-0.132,0.034,0.068,-3.138
0.029,0.044,0.015,-0.034,0.005,0.029,-0.317,-0.264,-0.127,0.063,0.083,-3.148
0.034,0.063,0.029,-0.049,0.0,0.044,-0.312,-0.264,-0.127,0.063,0.093,-3.152
0.044,0.054,0.01,-0.049,0.015,0.029,-0.307,-0.254,-0.117,0.073,0.102,-3.152
0.034,0.059,0.024,-0.044,0.005,0.039,-0.298,-0.249,-0.112,0.088,0.112,-3.152
0.034,0.068,0.034,-0.049,0.0,0.049,-0.288,-0.244,-0.107,0.093,0.122,-3.162
0.039,0.073,0.034,-0.054,0.0,0.054,-0.273,-0.244,-0.102,0.107,0.137,-3.167
0.029,0.063,0.034,-0.044,-0.005,0.049,-0.273,-0.244,-0.107,0.112,0.151,-3.177
0.034,0.068,0.034,-0.049,0.0,0.049,-0.278,-0.244,-0.107,0.127,0.171,-3.192
0.044,0.078,0.034,-0.059,0.005,0.054,-0.283,-0.249,-0.102,0.142,0.176,-3.201
0.044,0.078,0.034,-0.059,0.005,0.054,-0.283,-0.254,-0.102,0.151,0.181,-3.216
0.049,0.078,0.029,-0.063,0.01,0.054,-0.278,-0.249,-0.098,0.161,0.185,-3.226
0.049,0.078,0.029,-0.063,0.01,0.054,-0.273,-0.244,-0.098,0.176,0.2,-3.221
0.054,0.073,0.02,-0.063,0.015,0.044,-0.288,-0.239,-0.098,0.185,0.21,-3.226
0.054,0.073,0.02,-0.063,0.015,0.044,-0.288,-0.239,-0.088,0.185,0.224,-3.235
0.073,0.098,0.024,-0.083,0.024,0.059,-0.283,-0.254,-0.088,0.21,0.244,-3.245
0.078,0.102,0.024,-0.088,0.024,0.063,-0.293,-0.254,-0.088,0.22,0.254,-3.25
0.063,0.093,0.029,-0.078,0.015,0.059,-0.298,-0.264,-0.088,0.229,0.259,-3.26
0.078,0.107,0.029,-0.093,0.024,0.068,-0.312,-0.273,-0.088,0.229,0.264,-3.279
0.093,0.122,0.029,-0.107,0.029,0.073,-0.307,-0.278,-0.078,0.239,0.283,-3.294
0.093,0.127,0.034,-0.107,0.029,0.078,-0.307,-0.273,-0.078,0.254,0.298,-3.299
0.093,0.132,0.039,-0.112,0.024,0.083,-0.312,-0.268,-0.083,0.264,0.307,-3.304
0.093,0.142,0.049,-0.117,0.02,0.093,-0.317,-0.264,-0.083,0.273,0.317,-3.309
0.078,0.137,0.059,-0.107,0.01,0.098,-0.322,-0.273,-0.093,0.288,0.332,-3.328
0.078,0.142,0.063,-0.107,0.005,0.102,-0.332,-0.273,-0.088,0.303,0.342,-3.343
0.078,0.151,0.073,-0.112,0.0,0.112,-0.337,-0.283,-0.088,0.303,0.342,-3.357
0.073,0.132,0.059,-0.102,0.005,0.093,-0.342,-0.293,-0.088,0.303,0.342,-3.372
0.083,0.142,0.059,-0.112,0.01,0.098,-0.342,-0.283,-0.078,0.317,0.356,-3.382
0.098,0.156,0.059,-0.127,0.02,0.107,-0.342,-0.283,-0.078,0.322,0.366,-3.392
0.098,0.166,0.068,-0.132,0.015,0.117,-0.351,-0.278,-0.073,0.327,0.376,-3.401
0.078,0.151,0.073,-0.112,0.0,0.112,-0.351,-0.268,-0.063,0.332,0.381,-3.411
0.078,0.146,0.068,-0.112,0.005,0.107,-0.342,-0.273,-0.054,0.346,0.395,-3.426
0.102,0.151,0.049,-0.127,0.024,0.098,-0.351,-0.273,-0.054,0.351,0.405,-3.426
0.102,0.146,0.044,-0.122,0.029,0.093,-0.342,-0.273,-0.044,0.356,0.415,-3.431
0.093,0.142,0.049,-0.117,0.02,0.093,-0.337,-0.278,-0.044,0.361,0.425,-3.436
0.088,0.137,0.049,-0.112,0.02,0.093,-0.346,-0.288,-0.054,0.361,0.405,-3.46
0.083,0.142,0.059,-0.112,0.01,0.098,-0.356,-0.293,-0.049,0.356,0.415,-3.479
0.078,0.146,0.068,-0.112,0.005,0.107,-0.356,-0.293,-0.044,0.351,0.415,-3.499
0.078,0.151,0.073,-0.112,0.0,0.112,-0.361,-0.293,-0.039,0.342,0.425,-3.528
0.088,0.171,0.083,-0.127,0.0,0.127,-0.371,-0.283,-0.044,0.342,0.425,-3.528
0.083,0.176,0.093,-0.127,-0.005,0.132,-0.371,-0.278,-0.034,0.342,0.415,-3.533
0.083,0.176,0.093,-0.127,-0.005,0.132,-0.371,-0.278,-0.029,0.337,0.41,-3.548
0.083,0.181,0.098,-0.132,-0.01,0.137,-0.371,-0.278,-0.029,0.332,0.405,-3.567
0.088,0.19,0.102,-0.137,-0.01,0.146,-0.351,-0.254,-0.015,0.332,0.405,-3.582
0.093,0.185,0.093,-0.137,0.0,0.137,-0.346,-0.249,-0.01,0.332,0.41,-3.601
0.098,0.185,0.088,-0.142,0.005,0.137,-0.361,-0.254,-0.02,0.322,0.41,-3.611
0.102,0.185,0.083,-0.142,0.01,0.132,-0.356,-0.239,0.0,0.327,0.41,-3.621
0.093,0.176,0.083,-0.132,0.005,0.127,-0.351,-0.224,0.005,0.317,0.415,-3.65
0.093,0.176,0.083,-0.132,0.005,0.127,-0.351,-0.224,0.005,0.303,0.41,-3.67
0.088,0.176,0.088,-0.132,0.0,0.132,-0.346,-0.224,0.01,0.293,0.39,-3.684
0.078,0.171,0.093,-0.122,-0.01,0.132,-0.337,-0.215,0.015,0.293,0.386,-3.699
0.073,0.151,0.078,-0.112,-0.005,0.112,-0.332,-0.22,0.02,0.288,0.381,-3.738
0.088,0.146,0.059,-0.117,0.015,0.102,-0.327,-0.215,0.024,0.278,0.376,-3.748
0.073,0.137,0.063,-0.102,0.005,0.098,-0.322,-0.195,0.029,0.278,0.376,-3.758
0.068,0.127,0.059,-0.098,0.005,0.093,-0.317,-0.176,0.039,0.264,0.361,-3.767
0.073,0.142,0.068,-0.107,0.0,0.102,-0.298,-0.166,0.029,0.249,0.337,-3.797
0.068,0.142,0.073,-0.102,-0.005,0.107,-0.278,-0.156,0.044,0.244,0.327,-3.816
0.059,0.142,0.083,-0.098,-0.015,0.112,-0.264,-0.142,0.049,0.234,0.312,-3.841
0.063,0.146,0.083,-0.102,-0.01,0.112,-0.254,-0.117,0.049,0.22,0.298,-3.87
0.054,0.137,0.083,-0.093,-0.015,0.107,-0.249,-0.122,0.039,0.19,0.264,-3.948
0.073,0.146,0.073,-0.107,0.0,0.107,-0.224,-0.107,0.054,0.185,0.259,-3.958
0.088,0.156,0.068,-0.122,0.01,0.112,-0.205,-0.088,0.068,0.185,0.259,-3.967
0.117,0.195,0.078,-0.156,0.02,0.137,-0.195,-0.068,0.078,0.176,0.244,-3.992
0.093,0.171,0.078,-0.132,0.005,0.122,-0.205,-0.059,0.068,0.166,0.239,-4.002
0.078,0.156,0.078,-0.117,0.0,0.117,-0.205,-0.059,0.068,0.156,0.234,-4.011
0.063,0.142,0.078,-0.102,-0.01,0.107,-0.205,-0.059,0.068,0.146,0.229,-4.021
0.049,0.127,0.078,-0.088,-0.015,0.102,-0.205,-0.059,0.068,0.137,0.224,-4.031
0.039,0.107,0.068,-0.073,-0.015,0.088,-0.21,-0.068,0.063,0.112,0.205,-4.06
0.029,0.088,0.059,-0.059,-0.015,0.073,-0.215,-0.068,0.063,0.102,0.19,-4.085
0.039,0.093,0.054,-0.063,-0.01,0.073,-0.229,-0.068,0.059,0.088,0.171,-4.109
0.044,0.098,0.054,-0.068,-0.005,0.073,-0.239,-0.078,0.044,0.063,0.151,-4.138
0.044,0.073,0.029,-0.059,0.005,0.049,-0.249,-0.078,0.044,0.049,0.132,-4.168
0.044,0.083,0.039,-0.063,0.0,0.059,-0.254,-0.088,0.044,0.039,0.127,-4.182
0.044,0.093,0.049,-0.068,-0.005,0.068,-0.254,-0.088,0.044,0.034,0.122,-4.197
0.049,0.083,0.034,-0.063,0.005,0.059,-0.254,-0.088,0.044,0.034,0.117,-4.211
0.039,0.068,0.029,-0.054,0.005,0.049,-0.259,-0.098,0.039,0.005,0.102,-4.231
0.015,0.059,0.044,-0.034,-0.015,0.049,-0.268,-0.098,0.029,-0.005,0.088,-4.246
0.005,0.054,0.049,-0.029,-0.024,0.049,-0.259,-0.098,0.024,-0.015,0.078,-4.26
-0.005,0.049,0.054,-0.02,-0.029,0.049,-0.259,-0.093,0.02,-0.024,0.073,-4.27
-0.015,0.034,0.049,-0.01,-0.034,0.039,-0.254,-0.093,0.01,-0.039,0.063,-4.29
-0.015,0.029,0.044,-0.005,-0.029,0.034,-0.249,-0.093,0.005,-0.049,0.049,-4.299
-0.015,0.024,0.039,-0.005,-0.029,0.029,-0.239,-0.093,0.0,-0.059,0.039,-4.309
-0.01,0.02,0.029,-0.005,-0.02,0.024,-0.239,-0.093,-0.01,-0.068,0.02,-4.319
0.005,0.024,0.02,-0.015,-0.01,0.02,-0.229,-0.088,-0.02,-0.073,0.005,-4.343
0.005,0.02,0.015,-0.01,-0.005,0.015,-0.22,-0.083,-0.02,-0.078,0.0,-4.338
0.01,0.034,0.024,-0.02,-0.01,0.029,-0.195,-0.073,-0.02,-0.083,0.0,-4.343
0.02,0.049,0.029,-0.034,-0.005,0.039,-0.185,-0.068,-0.02,-0.088,-0.005,-4.348
0.015,0.029,0.015,-0.02,0.0,0.02,-0.166,-0.059,-0.015,-0.102,-0.02,-4.226
0.01,0.02,0.01,-0.015,0.0,0.015,-0.166,-0.059,-0.02,-0.107,-0.024,-4.114
0.01,0.01,0.0,-0.01,0.005,0.005,-0.171,-0.059,-0.029,-0.117,-0.034,-4.006
0.005,0.0,-0.005,0.0,0.005,-0.005,-0.171,-0.059,-0.034,-0.122,-0.039,-3.894
0.0,-0.005,-0.005,0.005,0.0,-0.005,-0.161,-0.059,-0.034,-0.132,-0.054,-3.548
0.0,-0.005,-0.005,0.005,0.0,-0.005,-0.151,-0.059,-0.029,-0.137,-0.063,-3.201
0.0,-0.005,-0.005,0.005,0.0,-0.005,-0.137,-0.059,-0.029,-0.142,-0.073,-2.865
0.0,-0.005,-0.005,0.005,0.0,-0.005,-0.127,-0.054,-0.034,-0.142,-0.078,-2.508
0.0,-0.015,-0.015,0.01,0.005,-0.015,-0.122,-0.049,-0.034,-0.156,-0.088,-1.596
0.0,-0.015,-0.015,0.01,0.005,-0.015,-0.122,-0.049,-0.044,-0.171,-0.102,-0.698
-0.005,-0.024,-0.02,0.015,0.005,-0.024,-0.122,-0.044,-0.044,-0.176,-0.112,0.205
-0.005,-0.024,-0.02,0.015,0.005,-0.024,-0.122,-0.034,-0.039,-0.181,-0.122,1.113
0.0,-0.029,-0.029,0.015,0.015,-0.029,-0.107,-0.029,-0.039,-0.19,-0.127,1.762
-0.005,-0.034,-0.029,0.02,0.01,-0.034,-0.102,-0.024,-0.039,-0.185,-0.122,2.411
-0.015,-0.039,-0.024,0.029,0.005,-0.034,-0.093,-0.02,-0.029,-0.185,-0.127,3.06
-0.02,-0.044,-0.024,0.034,0.0,-0.034,-0.088,-0.015,-0.039,-0.19,-0.142,3.704
-0.024,-0.059,-0.034,0.044,0.005,-0.049,-0.078,-0.024,-0.039,-0.195,-0.151,3.992
-0.034,-0.068,-0.034,0.054,0.0,-0.054,-0.068,-0.01,-0.034,-0.195,-0.146,4.275
-0.039,-0.073,-0.034,0.059,-0.005,-0.054,-0.059,-0.01,-0.029,-0.195,-0.146,4.553
-0.034,-0.063,-0.029,0.049,-0.005,-0.049,-0.054,-0.01,-0.029,-0.2,-0.146,4.831
-0.039,-0.093,-0.054,0.068,0.005,-0.073,-0.044,0.0,-0.044,-0.215,-0.142,4.963
-0.049,-0.107,-0.059,0.078,0.005,-0.083,-0.044,0.005,-0.044,-0.22,-0.142,5.08
-0.039,-0.098,-0.059,0.068,0.01,-0.078,-0.039,0.01,-0.044,-0.22,-0.142,5.202
-0.034,-0.102,-0.068,0.068,0.015,-0.088,-0.039,0.015,-0.044,-0.22,-0.146,5.324
-0.034,-0.107,-0.073,0.073,0.02,-0.093,-0.034,0.005,-0.044,-0.229,-0.161,5.388
-0.044,-0.102,-0.059,0.073,0.005,-0.083,-0.034,0.0,-0.049,-0.229,-0.166,5.441
-0.034,-0.093,-0.059,0.063,0.01,-0.078,-0.034,0.0,-0.049,-0.224,-0.171,5.495
-0.02,-0.088,-0.068,0.054,0.024,-0.078,-0.029,0.005,-0.039,-0.224,-0.176,5.549
-0.024,-0.073,-0.049,0.049,0.01,-0.063,-0.024,0.01,-0.034,-0.224,-0.166,5.568
-0.02,-0.078,-0.059,0.049,0.02,-0.068,-0.02,0.015,-0.039,-0.224,-0.166,5.578
-0.02,-0.078,-0.059,0.049,0.02,-0.068,-0.01,0.02,-0.034,-0.224,-0.166,5.588
-0.015,-0.073,-0.059,0.044,0.02,-0.068,-0.005,0.024,-0.024,-0.224,-0.166,5.597
-0.029,-0.073,-0.044,0.054,0.005,-0.059,-0.024,0.024,-0.039,-0.234,-0.181,5.588
-0.034,-0.093,-0.059,0.063,0.01,-0.078,-0.034,0.02,-0.044,-0.234,-0.185,5.583
-0.034,-0.102,-0.068,0.068,0.015,-0.088,-0.044,0.015,-0.049,-0.234,-0.19,5.578
-0.039,-0.107,-0.068,0.073,0.015,-0.088,-0.054,0.01,-0.054,-0.234,-0.195,5.573
-0.024,-0.102,-0.078,0.063,0.024,-0.093,-0.059,0.005,-0.044,-0.22,-0.195,5.573
-0.024,-0.107,-0.083,0.068,0.029,-0.098,-0.063,0.0,-0.044,-0.215,-0.195,5.568
-0.02,-0.102,-0.083,0.063,0.029,-0.093,-0.068,-0.01,-0.054,-0.22,-0.195,5.563
-0.015,-0.093,-0.078,0.054,0.029,-0.088,-0.068,-0.015,-0.054,-0.215,-0.21,5.563
-0.034,-0.102,-0.068,0.068,0.015,-0.088,-0.063,0.0,-0.039,-0.171,-0.19,5.544
-0.02,-0.102,-0.083,0.063,0.029,-0.093,-0.073,0.0,-0.049,-0.151,-0.181,5.524
0.0,-0.063,-0.063,0.034,0.029,-0.063,-0.073,0.01,-0.039,-0.137,-0.176,5.519
-0.02,-0.083,-0.063,0.054,0.02,-0.073,-0.078,0.02,-0.039,-0.117,-0.171,5.519
-0.034,-0.102,-0.068,0.068,0.015,-0.088,-0.093,0.005,-0.044,-0.122,-0.181,5.5
-0.024,-0.073,-0.049,0.049,0.01,-0.063,-0.102,-0.015,-0.054,-0.127,-0.2,5.49
0.005,-0.054,-0.059,0.024,0.029,-0.059,-0.098,-0.005,-0.044,-0.117,-0.195,5.48
0.015,-0.063,-0.078,0.024,0.044,-0.073,-0.088,0.015,-0.01,-0.122,-0.205,5.461
-0.01,-0.068,-0.059,0.039,0.024,-0.063,-0.083,0.024,0.02,-0.122,-0.234,5.422
-0.034,-0.063,-0.029,0.049,-0.005,-0.049,-0.063,0.063,0.059,-0.088,-0.239,5.392
-0.02,-0.049,-0.029,0.034,0.005,-0.039,-0.039,0.088,0.083,-0.039,-0.215,5.378
-0.02,-0.059,-0.039,0.039,0.01,-0.049,-0.039,0.083,0.088,0.073,-0.166,5.353
-0.02,-0.078,-0.059,0.049,0.02,-0.068,-0.039,0.107,0.137,0.229,-0.083,5.344
-0.029,-0.112,-0.083,0.073,0.024,-0.098,-0.029,0.142,0.185,0.381,0.024,5.378
-0.044,-0.142,-0.098,0.093,0.024,-0.122,-0.049,0.137,0.21,0.527,0.151,5.431
0.01,-0.083,-0.093,0.039,0.049,-0.088,-0.059,0.161,0.293,0.703,0.307,5.51
0.068,-0.02,-0.088,-0.024,0.078,-0.054,-0.02,0.215,0.41,0.859,0.429,5.597
0.054,-0.01,-0.063,-0.02,0.059,-0.039,-0.02,0.244,0.488,0.922,0.483,5.627
0.029,0.024,-0.005,-0.024,0.015,0.01,-0.049,0.259,0.566,1.035,0.576,5.671
0.063,0.102,0.039,-0.083,0.01,0.068,-0.044,0.327,0.732,1.215,0.703,5.734
0.117,0.156,0.039,-0.137,0.039,0.098,0.015,0.429,0.874,1.269,0.737,5.763
0.122,0.19,0.068,-0.156,0.024,0.127,0.054,0.498,0.908,1.093,0.59,5.685
0.083,0.195,0.112,-0.137,-0.015,0.151,0.093,0.517,0.834,0.732,0.307,5.505
-0.01,0.146,0.156,-0.068,-0.083,0.151,0.142,0.512,0.654,0.171,-0.102,5.275
-0.107,0.122,0.229,-0.005,-0.171,0.176,0.215,0.503,0.459,-0.464,-0.551,5.026
-0.181,0.112,0.293,0.034,-0.239,0.2,0.293,0.532,0.332,-0.922,-0.874,4.812
-0.21,0.039,0.249,0.088,-0.229,0.142,0.351,0.59,0.327,-1.083,-1.005,4.695
-0.21,-0.059,0.151,0.137,-0.181,0.044,0.4,0.62,0.366,-1.069,-1.02,4.641
-0.22,-0.107,0.112,0.166,-0.166,0.0,0.444,0.649,0.405,-0.966,-0.971,4.587
-0.205,-0.137,0.068,0.171,-0.137,-0.034,0.454,0.693,0.473,-0.805,-0.888,4.577
-0.195,-0.176,0.02,0.185,-0.107,-0.078,0.444,0.727,0.503,-0.683,-0.791,4.587
-0.195,-0.185,0.01,0.19,-0.102,-0.088,0.425,0.737,0.483,-0.625,-0.722,4.582
-0.181,-0.171,0.01,0.176,-0.098,-0.083,0.42,0.791,0.551,-0.537,-0.664,4.592
-0.166,-0.181,-0.015,0.176,-0.078,-0.098,0.439,0.864,0.63,-0.444,-0.61,4.602
-0.142,-0.19,-0.049,0.166,-0.049,-0.122,0.439,0.893,0.581,-0.444,-0.59,4.597
-0.132,-0.19,-0.059,0.161,-0.039,-0.127,0.439,0.898,0.483,-0.468,-0.59,4.597
-0.142,-0.2,-0.059,0.171,-0.044,-0.132,0.478,0.952,0.464,-0.444,-0.571,4.612
-0.117,-0.181,-0.063,0.151,-0.029,-0.122,0.537,1.039,0.439,-0.449,-0.551,4.621
-0.059,-0.132,-0.073,0.098,0.005,-0.102,0.6,1.078,0.356,-0.478,-0.551,4.592
-0.078,-0.127,-0.049,0.102,-0.015,-0.088,0.634,1.069,0.249,-0.498,-0.551,4.577
-0.137,-0.185,-0.049,0.161,-0.044,-0.117,0.678,1.059,0.161,-0.493,-0.537,4.577
-0.156,-0.185,-0.029,0.171,-0.063,-0.107,0.732,1.083,0.117,-0.473,-0.508,4.573
-0.156,-0.166,-0.01,0.161,-0.073,-0.088,0.81,1.132,0.117,-0.444,-0.498,4.592
-0.181,-0.185,-0.005,0.185,-0.088,-0.098,0.898,1.181,0.127,-0.41,-0.478,4.592
-0.176,-0.205,-0.029,0.19,-0.073,-0.117,0.956,1.2,0.127,-0.39,-0.488,4.563
-0.151,-0.181,-0.029,0.166,-0.063,-0.107,1.005,1.191,0.127,-0.386,-0.478,4.543
-0.161,-0.161,0.0,0.161,-0.083,-0.083,1.054,1.166,0.127,-0.351,-0.464,4.538
-0.176,-0.176,0.0,0.176,-0.088,-0.088,1.088,1.122,0.102,-0.342,-0.444,4.534
-0.156,-0.146,0.01,0.151,-0.083,-0.068,1.113,1.049,0.044,-0.351,-0.444,4.514
-0.127,-0.107,0.02,0.117,-0.073,-0.044,1.103,0.922,-0.005,-0.351,-0.429,4.509
-0.117,-0.107,0.01,0.112,-0.063,-0.049,1.02,0.747,-0.039,-0.332,-0.4,4.514
-0.112,-0.083,0.029,0.098,-0.073,-0.029,0.864,0.512,-0.093,-0.303,-0.371,4.509
-0.083,-0.015,0.068,0.049,-0.078,0.024,0.698,0.288,-0.122,-0.254,-0.337,4.514
-0.073,-0.005,0.068,0.039,-0.073,0.029,0.561,0.132,-0.102,-0.21,-0.293,4.538
-0.093,-0.029,0.063,0.063,-0.078,0.015,0.434,0.044,-0.093,-0.166,-0.259,4.538
-0.088,-0.02,0.068,0.054,-0.078,0.024,0.273,-0.024,-0.112,-0.137,-0.244,4.519
-0.044,0.0,0.044,0.024,-0.044,0.02,0.137,-0.059,-0.107,-0.117,-0.234,4.499
-0.024,0.0,0.024,0.015,-0.024,0.01,0.044,-0.063,-0.098,-0.093,-0.215,4.494
-0.044,-0.01,0.034,0.029,-0.039,0.01,-0.024,-0.083,-0.117,-0.083,-0.22,4.47
-0.034,-0.015,0.02,0.024,-0.029,0.0,-0.063,-0.102,-0.117,-0.078,-0.224,4.441
-0.034,-0.044,-0.01,0.039,-0.015,-0.029,-0.068,-0.083,-0.083,-0.063,-0.2,4.441
-0.044,-0.044,0.0,0.044,-0.024,-0.024,-0.068,-0.068,-0.063,-0.044,-0.185,4.431
-0.044,-0.039,0.005,0.044,-0.024,-0.02,-0.083,-0.073,-0.073,-0.039,-0.185,4.412
-0.034,-0.034,0.0,0.034,-0.02,-0.02,-0.088,-0.078,-0.068,-0.039,-0.181,4.402
-0.015,-0.034,-0.02,0.024,0.0,-0.029,-0.078,-0.083,-0.068,-0.034,-0.176,4.392
-0.005,-0.024,-0.02,0.015,0.005,-0.024,-0.088,-0.083,-0.088,-0.034,-0.176,4.382
-0.005,-0.024,-0.02,0.015,0.005,-0.024,-0.117,-0.098,-0.088,-0.02,-0.166,4.368
0.01,-0.01,-0.02,0.0,0.015,-0.015,-0.127,-0.107,-0.088,-0.01,-0.156,4.353
0.029,0.01,-0.02,-0.02,0.024,-0.005,-0.132,-0.112,-0.083,0.005,-0.151,4.343
0.044,0.034,-0.01,-0.039,0.024,0.01,-0.137,-0.117,-0.083,0.01,-0.151,4.329
0.02,0.005,-0.015,-0.01,0.015,-0.005,-0.122,-0.107,-0.083,0.005,-0.161,4.304
0.01,-0.005,-0.015,0.0,0.01,-0.01,-0.122,-0.117,-0.083,0.005,-0.161,4.27
0.005,-0.015,-0.02,0.005,0.01,-0.02,-0.122,-0.117,-0.083,0.005,-0.161,4.241
-0.005,-0.024,-0.02,0.015,0.005,-0.024,-0.117,-0.122,-0.088,0.005,-0.161,4.216
-0.02,-0.039,-0.02,0.029,0.0,-0.029,-0.127,-0.132,-0.088,-0.005,-0.166,4.182
-0.015,-0.039,-0.024,0.029,0.005,-0.034,-0.137,-0.142,-0.098,0.0,-0.171,4.148
-0.02,-0.039,-0.02,0.029,0.0,-0.029,-0.142,-0.142,-0.102,0.0,-0.171,4.114
-0.029,-0.049,-0.02,0.039,-0.005,-0.034,-0.151,-0.142,-0.107,0.005,-0.171,4.075
-0.015,-0.039,-0.024,0.029,0.005,-0.034,-0.146,-0.142,-0.107,0.015,-0.166,4.021
0.005,-0.024,-0.029,0.01,0.015,-0.029,-0.146,-0.142,-0.107,0.02,-0.156,3.977
0.01,-0.024,-0.034,0.01,0.02,-0.029,-0.137,-0.142,-0.102,0.029,-0.146,3.943
0.005,-0.024,-0.029,0.01,0.015,-0.029,-0.137,-0.146,-0.098,0.029,-0.142,3.899
0.0,-0.029,-0.029,0.015,0.015,-0.029,-0.127,-0.137,-0.088,0.029,-0.151,3.87
-0.005,-0.034,-0.029,0.02,0.01,-0.034,-0.127,-0.132,-0.088,0.029,-0.151,3.845
-0.01,-0.049,-0.039,0.029,0.015,-0.044,-0.127,-0.132,-0.088,0.039,-0.137,3.816
-0.015,-0.054,-0.039,0.034,0.01,-0.049,-0.132,-0.137,-0.088,0.039,-0.132,3.787
-0.01,-0.034,-0.024,0.024,0.005,-0.029,-0.137,-0.146,-0.083,0.034,-0.132,3.762
-0.015,-0.049,-0.034,0.034,0.01,-0.044,-0.142,-0.146,-0.088,0.039,-0.127,3.748
0.0,-0.029,-0.029,0.015,0.015,-0.029,-0.151,-0.156,-0.107,0.039,-0.127,3.723
0.005,-0.024,-0.029,0.01,0.015,-0.029,-0.161,-0.161,-0.122,0.039,-0.127,3.694
0.015,-0.034,-0.049,0.01,0.029,-0.044,-0.151,-0.161,-0.107,0.049,-0.132,3.67
0.02,-0.029,-0.049,0.005,0.034,-0.039,-0.151,-0.156,-0.098,0.054,-0.122,3.65
0.024,-0.02,-0.044,0.0,0.034,-0.034,-0.151,-0.156,-0.093,0.059,-0.122,3.631
0.024,-0.02,-0.044,0.0,0.034,-0.034,-0.151,-0.151,-0.088,0.068,-0.117,3.611
0.015,-0.01,-0.024,0.0,0.02,-0.02,-0.146,-0.161,-0.098,0.068,-0.102,3.582
0.024,-0.005,-0.029,-0.01,0.024,-0.02,-0.151,-0.161,-0.098,0.078,-0.098,3.572
0.01,-0.005,-0.015,0.0,0.01,-0.01,-0.176,-0.166,-0.098,0.088,-0.098,3.558
0.01,-0.015,-0.024,0.005,0.015,-0.02,-0.185,-0.166,-0.093,0.102,-0.083,3.548
0.015,-0.01,-0.024,0.0,0.02,-0.02,-0.195,-0.171,-0.088,0.112,-0.088,3.528
0.029,0.01,-0.02,-0.02,0.024,-0.005,-0.19,-0.166,-0.088,0.112,-0.078,3.514
0.029,0.005,-0.024,-0.015,0.024,-0.01,-0.19,-0.171,-0.088,0.112,-0.073,3.489
0.015,-0.02,-0.034,0.005,0.024,-0.029,-0.181,-0.176,-0.088,0.112,-0.073,3.475
0.015,0.005,-0.01,-0.01,0.01,-0.005,-0.195,-0.171,-0.073,0.127,-0.073,3.46
0.024,0.01,-0.015,-0.015,0.02,-0.005,-0.185,-0.166,-0.068,0.142,-0.054,3.455
0.024,0.01,-0.015,-0.015,0.02,-0.005,-0.185,-0.166,-0.068,0.151,-0.049,3.44
0.029,0.01,-0.02,-0.02,0.024,-0.005,-0.195,-0.166,-0.073,0.151,-0.049,3.426
0.044,0.029,-0.015,-0.034,0.029,0.005,-0.205,-0.171,-0.073,0.151,-0.039,3.416
0.044,0.034,-0.01,-0.039,0.024,0.01,-0.205,-0.176,-0.073,0.151,-0.029,3.401
0.049,0.029,-0.02,-0.039,0.034,0.005,-0.205,-0.181,-0.068,0.181,-0.02,3.387
0.063,0.063,0.0,-0.063,0.029,0.029,-0.205,-0.185,-0.068,0.181,-0.015,3.377
0.049,0.029,-0.02,-0.039,0.034,0.005,-0.205,-0.176,-0.054,0.195,-0.02,3.353
0.024,0.02,-0.005,-0.02,0.015,0.005,-0.2,-0.171,-0.054,0.205,-0.015,3.338
0.01,0.015,0.005,-0.01,0.0,0.01,-0.195,-0.166,-0.054,0.205,-0.01,3.314
0.0,0.005,0.005,0.0,-0.005,0.005,-0.185,-0.166,-0.054,0.215,0.0,3.294
0.015,0.015,0.0,-0.015,0.005,0.005,-0.176,-0.166,-0.049,0.22,0.005,3.284
0.024,0.029,0.005,-0.024,0.01,0.015,-0.181,-0.166,-0.049,0.234,0.024,3.27
0.039,0.049,0.01,-0.044,0.015,0.029,-0.185,-0.171,-0.044,0.249,0.029,3.26
0.044,0.059,0.015,-0.049,0.015,0.034,-0.185,-0.176,-0.044,0.259,0.034,3.245
0.029,0.059,0.029,-0.044,0.0,0.044,-0.185,-0.176,-0.039,0.259,0.034,3.235
0.029,0.059,0.029,-0.044,0.0,0.044,-0.185,-0.176,-0.039,0.273,0.044,3.24
0.034,0.054,0.02,-0.044,0.005,0.034,-0.205,-0.176,-0.039,0.283,0.049,3.235
0.034,0.054,0.02,-0.044,0.005,0.034,-0.21,-0.181,-0.029,0.283,0.059,3.226
0.059,0.073,0.015,-0.063,0.02,0.044,-0.229,-0.195,-0.044,0.307,0.068,3.206
0.059,0.073,0.015,-0.063,0.02,0.044,-0.254,-0.205,-0.049,0.317,0.078,3.192
0.039,0.059,0.02,-0.049,0.01,0.039,-0.273,-0.224,-0.054,0.327,0.083,3.172
0.049,0.068,0.02,-0.059,0.015,0.044,-0.303,-0.244,-0.059,0.327,0.088,3.143
0.063,0.078,0.015,-0.068,0.024,0.044,-0.346,-0.278,-0.073,0.322,0.093,3.138
0.063,0.078,0.015,-0.068,0.024,0.044,-0.376,-0.293,-0.078,0.332,0.102,3.133
0.063,0.078,0.015,-0.068,0.024,0.044,-0.41,-0.307,-0.088,0.337,0.107,3.128
0.063,0.083,0.02,-0.073,0.02,0.049,-0.444,-0.322,-0.093,0.342,0.112,3.123
0.073,0.098,0.024,-0.083,0.024,0.059,-0.464,-0.332,-0.078,0.361,0.127,3.118
0.078,0.112,0.034,-0.093,0.02,0.073,-0.478,-0.332,-0.068,0.381,0.146,3.109
0.083,0.132,0.049,-0.107,0.015,0.088,-0.488,-0.342,-0.063,0.386,0.156,3.099
0.083,0.122,0.039,-0.102,0.02,0.078,-0.498,-0.351,-0.059,0.39,0.166,3.089
0.078,0.122,0.044,-0.098,0.015,0.083,-0.483,-0.346,-0.054,0.405,0.176,3.07
0.088,0.137,0.049,-0.112,0.02,0.093,-0.478,-0.342,-0.049,0.41,0.181,3.06
0.083,0.146,0.063,-0.112,0.01,0.102,-0.483,-0.332,-0.039,0.415,0.185,3.05
0.059,0.132,0.073,-0.093,-0.01,0.102,-0.478,-0.317,-0.024,0.42,0.185,3.04
0.049,0.132,0.083,-0.088,-0.02,0.107,-0.478,-0.303,-0.024,0.41,0.181,3.021
0.073,0.142,0.068,-0.107,0.0,0.102,-0.488,-0.303,-0.024,0.41,0.181,3.016
0.073,0.142,0.068,-0.107,0.0,0.102,-0.478,-0.303,-0.015,0.41,0.181,3.006
0.063,0.142,0.078,-0.102,-0.01,0.107,-0.473,-0.307,-0.015,0.41,0.181,2.996
0.063,0.137,0.073,-0.098,-0.005,0.102,-0.468,-0.298,-0.015,0.41,0.161,2.972
0.063,0.142,0.078,-0.102,-0.01,0.107,-0.473,-0.303,-0.01,0.405,0.171,2.952
0.063,0.146,0.083,-0.102,-0.01,0.112,-0.468,-0.303,-0.005,0.4,0.171,2.933
0.068,0.151,0.083,-0.107,-0.01,0.117,-0.468,-0.303,0.0,0.39,0.181,2.904
0.078,0.151,0.073,-0.112,0.0,0.112,-0.454,-0.288,-0.005,0.381,0.176,2.894
0.073,0.146,0.073,-0.107,0.0,0.107,-0.449,-0.278,0.005,0.381,0.161,2.889
0.073,0.137,0.063,-0.102,0.005,0.098,-0.444,-0.273,0.01,0.376,0.151,2.874
0.073,0.132,0.059,-0.102,0.005,0.093,-0.439,-0.268,0.01,0.371,0.142,2.855
0.073,0.146,0.073,-0.107,0.0,0.107,-0.429,-0.249,0.024,0.376,0.151,2.83
0.073,0.146,0.073,-0.107,0.0,0.107,-0.425,-0.239,0.029,0.371,0.156,2.811
0.073,0.151,0.078,-0.112,-0.005,0.112,-0.439,-0.239,0.02,0.356,0.156,2.801
0.073,0.156,0.083,-0.112,-0.005,0.117,-0.434,-0.22,0.039,0.356,0.156,2.791
0.073,0.132,0.059,-0.102,0.005,0.093,-0.42,-0.224,0.029,0.356,0.142,2.762
0.073,0.127,0.054,-0.098,0.01,0.088,-0.42,-0.224,0.024,0.342,0.137,2.743
0.068,0.122,0.054,-0.093,0.005,0.088,-0.415,-0.224,0.024,0.332,0.117,2.728
0.059,0.112,0.054,-0.083,0.0,0.083,-0.405,-0.215,0.024,0.332,0.112,2.713
0.059,0.112,0.054,-0.083,0.0,0.083,-0.39,-0.205,0.039,0.307,0.107,2.684
0.078,0.117,0.039,-0.098,0.02,0.078,-0.386,-0.195,0.044,0.298,0.102,2.674
0.068,0.117,0.049,-0.093,0.01,0.083,-0.381,-0.171,0.049,0.298,0.102,2.664
0.068,0.117,0.049,-0.093,0.01,0.083,-0.376,-0.146,0.059,0.283,0.088,2.655
0.063,0.107,0.044,-0.083,0.01,0.073,-0.371,-0.151,0.054,0.259,0.068,2.625
0.049,0.093,0.044,-0.068,0.0,0.068,-0.356,-0.146,0.063,0.254,0.063,2.606
0.029,0.078,0.049,-0.054,-0.01,0.063,-0.346,-0.137,0.063,0.244,0.054,2.582
0.024,0.068,0.044,-0.044,-0.01,0.054,-0.342,-0.117,0.059,0.229,0.044,2.552
0.044,0.078,0.034,-0.059,0.005,0.054,-0.322,-0.112,0.063,0.21,0.029,2.528
0.054,0.078,0.024,-0.063,0.015,0.049,-0.303,-0.098,0.073,0.205,0.024,2.503
0.068,0.088,0.02,-0.078,0.024,0.054,-0.298,-0.088,0.083,0.195,0.015,2.479
0.078,0.088,0.01,-0.083,0.034,0.049,-0.293,-0.083,0.093,0.181,0.005,2.45
0.054,0.059,0.005,-0.054,0.024,0.029,-0.288,-0.073,0.088,0.181,-0.015,2.42
0.034,0.054,0.02,-0.044,0.005,0.034,-0.283,-0.063,0.093,0.161,-0.02,2.401
0.024,0.054,0.029,-0.039,-0.005,0.039,-0.268,-0.059,0.088,0.142,-0.039,2.381
0.015,0.049,0.034,-0.029,-0.01,0.039,-0.259,-0.059,0.088,0.132,-0.049,2.352
0.024,0.034,0.01,-0.029,0.005,0.02,-0.254,-0.054,0.083,0.122,-0.059,2.328
0.02,0.024,0.005,-0.02,0.005,0.015,-0.239,-0.044,0.083,0.122,-0.068,2.313
0.015,0.024,0.01,-0.02,0.0,0.015,-0.229,-0.029,0.083,0.102,-0.078,2.298
0.015,0.015,0.0,-0.015,0.005,0.005,-0.215,-0.02,0.093,0.093,-0.083,2.284
0.005,0.015,0.01,-0.01,-0.005,0.01,-0.195,-0.015,0.083,0.083,-0.093,2.264
0.005,0.015,0.01,-0.01,-0.005,0.01,-0.176,0.0,0.083,0.073,-0.098,2.255
0.005,0.01,0.005,-0.005,0.0,0.005,-0.166,0.0,0.083,0.073,-0.102,2.23
0.0,0.0,0.0,0.0,0.0,0.0,-0.166,0.005,0.083,0.068,-0.117,2.201
0.01,0.0,-0.01,-0.005,0.01,-0.005,-0.156,0.015,0.088,0.059,-0.122,2.176
0.01,-0.005,-0.015,0.0,0.01,-0.01,-0.151,0.029,0.098,0.054,-0.122,2.167
0.015,-0.005,-0.02,-0.005,0.015,-0.015,-0.127,0.044,0.088,0.054,-0.122,2.162
0.02,-0.005,-0.024,-0.005,0.02,-0.015,-0.127,0.044,0.083,0.049,-0.127,2.157
0.01,-0.005,-0.015,0.0,0.01,-0.01,-0.122,0.029,0.059,0.02,-0.151,2.137
0.0,-0.02,-0.02,0.01,0.01,-0.02,-0.112,0.024,0.054,0.005,-0.161,2.118
0.0,-0.02,-0.02,0.01,0.01,-0.02,-0.107,0.02,0.049,-0.005,-0.171,2.094
0.0,-0.01,-0.01,0.005,0.005,-0.01,-0.102,0.015,0.049,-0.015,-0.181,2.074
-0.01,-0.034,-0.024,0.024,0.005,-0.029,-0.098,0.029,0.049,-0.01,-0.176,2.064
-0.01,-0.034,-0.024,0.024,0.005,-0.029,-0.088,0.024,0.049,-0.005,-0.171,2.045
-0.02,-0.034,-0.015,0.029,-0.005,-0.024,-0.088,0.02,0.049,0.0,-0.171,2.03
-0.02,-0.034,-0.015,0.029,-0.005,-0.024,-0.083,0.034,0.044,0.005,-0.171,2.015
-0.029,-0.049,-0.02,0.039,-0.005,-0.034,-0.083,0.029,0.034,-0.015,-0.185,1.991
-0.024,-0.054,-0.029,0.039,0.0,-0.044,-0.083,0.02,0.015,-0.024,-0.19,1.976
-0.024,-0.059,-0.034,0.044,0.005,-0.049,-0.083,0.015,0.01,-0.029,-0.195,1.976
-0.029,-0.073,-0.044,0.054,0.005,-0.059,-0.083,0.01,0.01,-0.034,-0.195,1.962
-0.015,-0.024,-0.01,0.02,-0.005,-0.02,-0.073,0.015,0.01,-0.034,-0.185,1.928
-0.015,-0.005,0.01,0.01,-0.015,0.0,-0.073,0.005,0.005,-0.034,-0.19,1.918
0.0,-0.01,-0.01,0.005,0.005,-0.01,-0.068,0.02,0.01,-0.029,-0.185,1.913
-0.01,-0.015,-0.005,0.015,-0.005,-0.01,-0.059,0.02,0.01,-0.02,-0.195,1.893
-0.01,-0.02,-0.01,0.015,0.0,-0.015,-0.059,0.02,0.01,-0.02,-0.195,1.884
-0.01,-0.024,-0.015,0.02,0.0,-0.02,-0.059,0.02,0.01,-0.02,-0.195,1.874
-0.01,-0.029,-0.02,0.02,0.005,-0.024,-0.059,0.02,0.01,-0.02,-0.195,1.864
-0.024,-0.044,-0.02,0.034,-0.005,-0.034,-0.044,0.029,0.01,-0.024,-0.205,1.84
-0.039,-0.059,-0.02,0.049,-0.01,-0.039,-0.039,0.029,0.015,-0.024,-0.2,1.83
-0.034,-0.049,-0.015,0.044,-0.01,-0.034,-0.044,0.029,0.015,-0.029,-0.2,1.82
-0.034,-0.039,-0.005,0.039,-0.015,-0.024,-0.044,0.02,0.005,-0.044,-0.2,1.806
-0.034,-0.044,-0.01,0.039,-0.015,-0.029,-0.029,0.034,0.01,-0.039,-0.205,1.791
-0.034,-0.034,0.0,0.034,-0.02,-0.02,-0.029,0.029,0.015,-0.039,-0.205,1.781
-0.034,-0.024,0.01,0.029,-0.024,-0.01,-0.024,0.034,0.02,-0.034,-0.205,1.771
-0.029,-0.034,-0.005,0.034,-0.015,-0.02,-0.02,0.039,0.024,-0.024,-0.205,1.762
-0.01,-0.02,-0.01,0.015,0.0,-0.015,-0.01,0.049,0.039,-0.029,-0.2,1.742
-0.015,-0.02,-0.005,0.02,-0.005,-0.015,-0.005,0.059,0.039,-0.024,-0.195,1.737
-0.005,-0.015,-0.01,0.01,0.0,-0.015,0.02,0.068,0.044,-0.02,-0.185,1.732
0.005,-0.01,-0.015,0.005,0.01,-0.015,0.034,0.083,0.049,-0.015,-0.171,1.732
0.0,0.0,0.0,0.0,0.0,0.0,0.044,0.083,0.054,-0.02,-0.171,1.723
-0.005,0.0,0.005,0.005,-0.005,0.0,0.044,0.083,0.054,-0.02,-0.176,1.713
-0.01,0.0,0.01,0.005,-0.01,0.005,0.049,0.083,0.054,-0.02,-0.176,1.703
-0.01,0.0,0.01,0.005,-0.01,0.005,0.044,0.083,0.049,-0.02,-0.185,1.693
-0.024,-0.005,0.02,0.015,-0.024,0.005,0.034,0.068,0.049,-0.02,-0.195,1.664
-0.034,-0.02,0.015,0.029,-0.024,-0.005,0.024,0.063,0.049,-0.02,-0.195,1.664
-0.039,-0.015,0.024,0.029,-0.034,0.005,0.029,0.063,0.049,-0.02,-0.19,1.654
-0.039,-0.01,0.029,0.024,-0.034,0.01,0.02,0.059,0.049,-0.02,-0.19,1.645
-0.024,0.015,0.039,0.005,-0.034,0.024,0.0,0.034,0.044,-0.02,-0.185,1.64
-0.01,0.029,0.039,-0.01,-0.024,0.034,-0.029,0.02,0.039,-0.02,-0.181,1.635
0.01,0.044,0.034,-0.024,-0.015,0.039,-0.063,0.005,0.029,-0.024,-0.181,1.625
0.024,0.059,0.034,-0.039,-0.005,0.044,-0.093,-0.01,0.024,-0.024,-0.176,1.62
0.005,0.063,0.059,-0.034,-0.029,0.059,-0.127,-0.034,0.02,-0.01,-0.171,1.606
0.0,0.063,0.063,-0.029,-0.034,0.063,-0.151,-0.049,0.02,-0.01,-0.171,1.601
-0.005,0.063,0.068,-0.029,-0.039,0.063,-0.171,-0.063,0.015,-0.01,-0.171,1.586
-0.01,0.063,0.073,-0.024,-0.044,0.068,-0.195,-0.073,0.005,-0.005,-0.166,1.591
0.0,0.063,0.063,-0.029,-0.034,0.063,-0.22,-0.078,0.0,-0.005,-0.156,1.581
0.0,0.063,0.063,-0.029,-0.034,0.063,-0.229,-0.088,-0.015,-0.015,-0.161,1.566
-0.005,0.054,0.059,-0.024,-0.034,0.054,-0.239,-0.093,-0.02,-0.015,-0.161,1.557
-0.005,0.054,0.059,-0.024,-0.034,0.054,-0.249,-0.093,-0.02,-0.015,-0.161,1.552
0.015,0.068,0.054,-0.039,-0.02,0.059,-0.254,-0.102,-0.02,-0.005,-0.161,1.537
0.015,0.073,0.059,-0.044,-0.024,0.063,-0.259,-0.102,-0.02,0.0,-0.151,1.532
0.01,0.078,0.068,-0.044,-0.029,0.073,-0.259,-0.102,-0.01,0.0,-0.151,1.527
0.01,0.083,0.073,-0.044,-0.034,0.078,-0.264,-0.102,-0.02,-0.005,-0.161,1.518
0.005,0.063,0.059,-0.034,-0.029,0.059,-0.249,-0.102,-0.029,-0.02,-0.161,1.498
-0.005,0.049,0.054,-0.02,-0.029,0.049,-0.244,-0.088,-0.024,-0.02,-0.156,1.493
-0.01,0.039,0.049,-0.015,-0.029,0.044,-0.239,-0.088,-0.02,-0.02,-0.156,1.484
-0.005,0.044,0.049,-0.02,-0.029,0.044,-0.239,-0.088,-0.02,-0.024,-0.156,1.474
-0.005,0.02,0.024,-0.005,-0.015,0.02,-0.234,-0.083,-0.034,-0.02,-0.171,1.459
-0.01,0.01,0.02,0.0,-0.015,0.015,-0.229,-0.083,-0.034,-0.024,-0.171,1.449
0.005,0.024,0.02,-0.015,-0.01,0.02,-0.22,-0.083,-0.034,-0.024,-0.171,1.444
0.015,0.024,0.01,-0.02,0.0,0.015,-0.215,-0.083,-0.034,-0.024,-0.176,1.44
0.0,0.0,0.0,0.0,0.0,0.0,-0.2,-0.073,-0.034,-0.034,-0.166,1.43
-0.015,-0.005,0.01,0.01,-0.015,0.0,-0.2,-0.078,-0.039,-0.034,-0.166,1.42
-0.01,-0.005,0.005,0.01,-0.01,0.0,-0.2,-0.078,-0.039,-0.029,-0.166,1.41
0.0,-0.01,-0.01,0.005,0.005,-0.01,-0.195,-0.073,-0.029,-0.029,-0.166,1.401
-0.02,-0.015,0.005,0.02,-0.015,-0.005,-0.185,-0.083,-0.039,-0.039,-0.176,1.381
-0.02,-0.029,-0.01,0.024,-0.005,-0.02,-0.185,-0.083,-0.049,-0.039,-0.176,1.371
-0.024,-0.039,-0.015,0.034,-0.005,-0.029,-0.181,-0.083,-0.049,-0.039,-0.176,1.362
-0.024,-0.044,-0.02,0.034,-0.005,-0.034,-0.181,-0.083,-0.044,-0.039,-0.176,1.352
-0.015,-0.02,-0.005,0.02,-0.005,-0.015,-0.181,-0.078,-0.044,-0.049,-0.176,1.342
-0.005,-0.024,-0.02,0.015,0.005,-0.024,-0.181,-0.078,-0.044,-0.049,-0.176,1.337
0.01,-0.02,-0.029,0.005,0.02,-0.024,-0.181,-0.078,-0.044,-0.049,-0.176,1.332
0.02,-0.01,-0.029,-0.005,0.024,-0.02,-0.181,-0.078,-0.044,-0.049,-0.176,1.327
0.01,-0.02,-0.029,0.005,0.02,-0.024,-0.176,-0.068,-0.044,-0.039,-0.166,1.313
0.005,-0.029,-0.034,0.015,0.02,-0.034,-0.171,-0.068,-0.044,-0.039,-0.166,1.303
0.005,-0.029,-0.034,0.015,0.02,-0.034,-0.166,-0.073,-0.054,-0.049,-0.166,1.293
0.005,-0.024,-0.029,0.01,0.015,-0.029,-0.156,-0.073,-0.054,-0.049,-0.181,1.288
0.015,-0.024,-0.039,0.005,0.024,-0.034,-0.151,-0.078,-0.068,-0.063,-0.19,1.259
0.0,-0.044,-0.044,0.024,0.02,-0.044,-0.151,-0.078,-0.068,-0.063,-0.2,1.249
-0.039,-0.073,-0.034,0.059,-0.005,-0.054,-0.151,-0.078,-0.059,-0.068,-0.205,1.235
-0.049,-0.083,-0.034,0.068,-0.01,-0.059,-0.146,-0.078,-0.059,-0.078,-0.22,1.225
-0.005,-0.044,-0.039,0.024,0.015,-0.044,-0.122,-0.054,-0.044,-0.083,-0.22,1.215
0.024,-0.024,-0.049,0.0,0.034,-0.039,-0.093,-0.015,-0.015,-0.088,-0.229,1.215
-0.015,-0.024,-0.01,0.02,-0.005,-0.02,-0.078,-0.005,-0.024,-0.098,-0.244,1.186
-0.024,0.005,0.029,0.01,-0.029,0.015,-0.088,-0.024,-0.059,-0.083,-0.254,1.157
0.039,0.049,0.01,-0.044,0.015,0.029,-0.083,-0.024,-0.039,0.024,-0.195,1.186
0.054,0.015,-0.039,-0.034,0.044,-0.015,-0.063,-0.015,0.02,0.185,-0.102,1.215
-0.029,-0.078,-0.049,0.054,0.01,-0.063,-0.078,-0.01,0.054,0.332,-0.02,1.23
-0.049,-0.127,-0.078,0.088,0.015,-0.102,-0.088,0.005,0.098,0.473,0.088,1.264
0.02,-0.088,-0.107,0.034,0.063,-0.098,-0.059,0.068,0.185,0.659,0.239,1.342
0.059,-0.044,-0.102,-0.005,0.078,-0.073,-0.039,0.132,0.303,0.839,0.366,1.415
0.044,-0.024,-0.068,-0.01,0.054,-0.049,-0.039,0.166,0.395,0.947,0.444,1.459
0.059,0.015,-0.044,-0.034,0.049,-0.015,-0.049,0.19,0.459,1.035,0.532,1.518
0.078,0.068,-0.01,-0.073,0.044,0.029,-0.059,0.215,0.547,1.142,0.634,1.586
0.083,0.117,0.034,-0.098,0.024,0.073,-0.049,0.283,0.654,1.225,0.698,1.625
0.088,0.161,0.073,-0.122,0.005,0.117,0.01,0.386,0.771,1.23,0.693,1.64
0.073,0.181,0.107,-0.127,-0.02,0.142,0.073,0.464,0.83,1.098,0.576,1.596
0.029,0.185,0.156,-0.107,-0.063,0.171,0.132,0.517,0.786,0.781,0.307,1.459
-0.044,0.151,0.195,-0.054,-0.122,0.171,0.21,0.537,0.664,0.322,-0.073,1.244
-0.132,0.098,0.229,0.02,-0.181,0.161,0.317,0.556,0.522,-0.195,-0.464,1.015
-0.185,0.059,0.244,0.063,-0.215,0.151,0.415,0.581,0.371,-0.659,-0.786,0.815
-0.215,-0.044,0.171,0.132,-0.195,0.063,0.459,0.581,0.254,-0.981,-1.0,0.664
-0.249,-0.161,0.088,0.205,-0.171,-0.039,0.488,0.561,0.185,-1.137,-1.078,0.586
-0.249,-0.176,0.073,0.215,-0.161,-0.054,0.508,0.551,0.181,-1.083,-1.044,0.566
-0.22,-0.166,0.054,0.195,-0.137,-0.059,0.508,0.551,0.229,-0.893,-0.932,0.581
-0.22,-0.234,-0.015,0.229,-0.102,-0.127,0.503,0.542,0.249,-0.752,-0.844,0.615
-0.224,-0.273,-0.049,0.249,-0.088,-0.161,0.483,0.547,0.229,-0.717,-0.8,0.625
-0.195,-0.234,-0.039,0.215,-0.078,-0.137,0.473,0.561,0.229,-0.654,-0.752,0.654
-0.166,-0.205,-0.039,0.185,-0.063,-0.122,0.493,0.62,0.288,-0.547,-0.683,0.688
-0.171,-0.22,-0.049,0.195,-0.063,-0.137,0.508,0.654,0.337,-0.478,-0.634,0.717
-0.166,-0.21,-0.044,0.19,-0.063,-0.127,0.508,0.678,0.288,-0.483,-0.63,0.717
-0.161,-0.22,-0.059,0.19,-0.054,-0.142,0.527,0.698,0.22,-0.503,-0.62,0.712
-0.132,-0.229,-0.098,0.181,-0.02,-0.166,0.586,0.761,0.22,-0.478,-0.6,0.712
-0.112,-0.2,-0.088,0.156,-0.015,-0.146,0.664,0.844,0.21,-0.464,-0.581,0.717
-0.127,-0.19,-0.063,0.161,-0.034,-0.127,0.732,0.903,0.146,-0.488,-0.581,0.708
-0.166,-0.249,-0.083,0.21,-0.044,-0.166,0.776,0.952,0.093,-0.498,-0.581,0.688
-0.176,-0.264,-0.088,0.22,-0.044,-0.176,0.82,0.971,0.034,-0.508,-0.571,0.693
-0.127,-0.215,-0.088,0.171,-0.02,-0.151,0.864,0.961,-0.034,-0.503,-0.556,0.703
-0.137,-0.215,-0.078,0.176,-0.029,-0.146,0.878,0.937,-0.088,-0.493,-0.537,0.717
-0.176,-0.264,-0.088,0.22,-0.044,-0.176,0.908,0.908,-0.137,-0.473,-0.517,0.717
-0.161,-0.254,-0.093,0.21,-0.034,-0.176,0.947,0.898,-0.166,-0.459,-0.508,0.717
-0.146,-0.224,-0.078,0.185,-0.034,-0.151,0.996,0.927,-0.166,-0.429,-0.498,0.727
-0.181,-0.239,-0.059,0.21,-0.063,-0.151,1.054,0.937,-0.146,-0.405,-0.468,0.737
-0.181,-0.22,-0.039,0.2,-0.073,-0.132,1.074,0.883,-0.176,-0.39,-0.473,0.732
-0.137,-0.185,-0.049,0.161,-0.044,-0.117,1.088,0.83,-0.19,-0.39,-0.464,0.727
-0.146,-0.176,-0.029,0.161,-0.059,-0.102,1.113,0.815,-0.171,-0.361,-0.434,0.737
-0.166,-0.176,-0.01,0.171,-0.078,-0.093,1.132,0.786,-0.151,-0.342,-0.42,0.742
-0.127,-0.146,-0.02,0.137,-0.054,-0.083,1.137,0.727,-0.166,-0.351,-0.429,0.727
-0.102,-0.142,-0.039,0.122,-0.034,-0.093,1.098,0.62,-0.171,-0.342,-0.42,0.732
-0.122,-0.142,-0.02,0.132,-0.054,-0.083,0.981,0.473,-0.19,-0.322,-0.386,0.756
-0.122,-0.122,0.0,0.122,-0.063,-0.063,0.776,0.288,-0.22,-0.298,-0.371,0.771
-0.122,-0.088,0.034,0.107,-0.078,-0.029,0.59,0.093,-0.229,-0.264,-0.356,0.781
-0.117,-0.078,0.039,0.098,-0.078,-0.02,0.439,-0.044,-0.229,-0.234,-0.312,0.8
-0.102,-0.068,0.034,0.088,-0.068,-0.02,0.322,-0.127,-0.234,-0.205,-0.293,0.81
-0.083,-0.059,0.024,0.073,-0.054,-0.02,0.2,-0.151,-0.244,-0.2,-0.283,0.805
-0.093,-0.078,0.015,0.088,-0.054,-0.034,0.102,-0.161,-0.244,-0.171,-0.268,0.81
-0.093,-0.083,0.01,0.088,-0.054,-0.039,0.005,-0.171,-0.234,-0.156,-0.254,0.82
-0.044,-0.044,0.0,0.044,-0.024,-0.024,-0.088,-0.181,-0.22,-0.142,-0.239,0.82
-0.024,-0.015,0.01,0.02,-0.02,-0.005,-0.146,-0.176,-0.19,-0.122,-0.215,0.839
-0.039,-0.01,0.029,0.024,-0.034,0.01,-0.185,-0.185,-0.176,-0.102,-0.21,0.834
-0.034,-0.005,0.029,0.02,-0.034,0.01,-0.205,-0.195,-0.166,-0.098,-0.2,0.839
-0.02,-0.005,0.015,0.015,-0.02,0.005,-0.21,-0.205,-0.161,-0.088,-0.19,0.844
-0.015,0.005,0.02,0.005,-0.02,0.01,-0.234,-0.21,-0.176,-0.083,-0.185,0.849
-0.034,-0.015,0.02,0.024,-0.029,0.0,-0.244,-0.22,-0.176,-0.083,-0.185,0.844
-0.039,-0.02,0.02,0.029,-0.029,0.0,-0.254,-0.224,-0.176,-0.078,-0.176,0.839
-0.039,-0.02,0.02,0.029,-0.029,0.0,-0.259,-0.224,-0.171,-0.068,-0.171,0.839
-0.044,-0.015,0.029,0.029,-0.039,0.005,-0.264,-0.224,-0.171,-0.068,-0.171,0.834
-0.034,-0.015,0.02,0.024,-0.029,0.0,-0.273,-0.224,-0.161,-0.054,-0.166,0.834
-0.02,-0.005,0.015,0.015,-0.02,0.005,-0.278,-0.234,-0.161,-0.054,-0.161,0.825
0.0,0.005,0.005,0.0,-0.005,0.005,-0.283,-0.234,-0.161,-0.054,-0.156,0.82
0.015,0.015,0.0,-0.015,0.005,0.005,-0.283,-0.239,-0.166,-0.054,-0.151,0.82
-0.01,0.0,0.01,0.005,-0.01,0.005,-0.278,-0.229,-0.161,-0.049,-0.142,0.82
-0.005,0.0,0.005,0.005,-0.005,0.0,-0.283,-0.239,-0.166,-0.039,-0.142,0.82
-0.01,0.0,0.01,0.005,-0.01,0.005,-0.283,-0.239,-0.166,-0.034,-0.137,0.82
-0.02,-0.01,0.01,0.015,-0.015,0.0,-0.288,-0.239,-0.166,-0.024,-0.132,0.815
-0.015,-0.01,0.005,0.015,-0.01,-0.005,-0.283,-0.229,-0.161,-0.015,-0.122,0.81
0.005,0.005,0.0,-0.005,0.0,0.0,-0.273,-0.22,-0.156,-0.01,-0.117,0.805
0.01,0.005,-0.005,-0.005,0.005,0.0,-0.254,-0.21,-0.146,0.0,-0.112,0.81
0.005,0.005,0.0,-0.005,0.0,0.0,-0.244,-0.205,-0.137,0.0,-0.112,0.805
0.029,0.024,-0.005,-0.024,0.015,0.01,-0.244,-0.205,-0.127,0.0,-0.112,0.8
0.034,0.024,-0.01,-0.029,0.02,0.005,-0.244,-0.2,-0.127,0.0,-0.112,0.8
0.039,0.015,-0.024,-0.024,0.029,-0.005,-0.244,-0.2,-0.127,0.01,-0.098,0.795
0.044,0.015,-0.029,-0.029,0.034,-0.01,-0.249,-0.205,-0.127,0.01,-0.093,0.791
0.039,0.02,-0.02,-0.029,0.029,0.0,-0.239,-0.195,-0.127,0.015,-0.093,0.781
0.024,-0.01,-0.034,-0.005,0.029,-0.024,-0.239,-0.195,-0.127,0.02,-0.088,0.791
0.029,-0.005,-0.034,-0.01,0.029,-0.02,-0.244,-0.205,-0.142,0.02,-0.088,0.791
0.024,-0.015,-0.039,-0.005,0.029,-0.029,-0.249,-0.21,-0.151,0.02,-0.088,0.786
0.024,-0.029,-0.054,0.005,0.039,-0.044,-0.244,-0.2,-0.142,0.02,-0.083,0.771
0.029,-0.029,-0.059,0.0,0.044,-0.044,-0.239,-0.195,-0.137,0.024,-0.073,0.771
0.034,-0.024,-0.059,-0.005,0.044,-0.044,-0.234,-0.195,-0.137,0.029,-0.073,0.771
0.034,-0.029,-0.063,0.0,0.049,-0.049,-0.229,-0.19,-0.137,0.039,-0.068,0.771
0.024,-0.029,-0.054,0.005,0.039,-0.044,-0.205,-0.19,-0.137,0.049,-0.063,0.756
0.034,-0.024,-0.059,-0.005,0.044,-0.044,-0.2,-0.19,-0.137,0.059,-0.059,0.761
0.02,-0.024,-0.044,0.005,0.029,-0.034,-0.215,-0.195,-0.137,0.068,-0.059,0.761
0.02,-0.034,-0.054,0.01,0.034,-0.044,-0.215,-0.195,-0.132,0.083,-0.044,0.766
0.034,-0.029,-0.063,0.0,0.049,-0.049,-0.205,-0.181,-0.122,0.093,-0.029,0.761
0.049,-0.01,-0.059,-0.02,0.054,-0.034,-0.19,-0.166,-0.117,0.093,-0.02,0.761
0.049,-0.015,-0.063,-0.015,0.054,-0.039,-0.181,-0.161,-0.112,0.093,-0.015,0.752
0.034,-0.039,-0.073,0.005,0.054,-0.059,-0.161,-0.156,-0.107,0.093,-0.015,0.752
0.02,-0.024,-0.044,0.005,0.029,-0.034,-0.166,-0.166,-0.102,0.098,-0.01,0.752
0.024,-0.029,-0.054,0.005,0.039,-0.044,-0.156,-0.166,-0.098,0.112,0.005,0.761
0.02,-0.039,-0.059,0.01,0.039,-0.049,-0.156,-0.171,-0.098,0.122,0.005,0.761
0.02,-0.049,-0.068,0.015,0.044,-0.059,-0.166,-0.176,-0.102,0.122,0.0,0.761
0.029,-0.044,-0.073,0.01,0.049,-0.059,-0.161,-0.166,-0.102,0.132,0.01,0.756
0.024,-0.044,-0.068,0.01,0.044,-0.059,-0.156,-0.166,-0.102,0.132,0.02,0.756
0.024,-0.054,-0.078,0.015,0.049,-0.068,-0.151,-0.166,-0.098,0.161,0.029,0.756
0.034,-0.024,-0.059,-0.005,0.044,-0.044,-0.146,-0.166,-0.098,0.161,0.034,0.761
0.039,-0.034,-0.073,0.0,0.054,-0.054,-0.146,-0.151,-0.083,0.171,0.049,0.766
0.034,-0.029,-0.063,0.0,0.049,-0.049,-0.142,-0.151,-0.083,0.185,0.054,0.771
0.039,-0.02,-0.059,-0.01,0.049,-0.039,-0.137,-0.151,-0.083,0.19,0.059,0.766
0.049,-0.015,-0.063,-0.015,0.054,-0.039,-0.127,-0.156,-0.083,0.205,0.068,0.766
0.044,-0.015,-0.059,-0.015,0.049,-0.039,-0.122,-0.146,-0.068,0.215,0.063,0.766
0.044,-0.01,-0.054,-0.015,0.049,-0.034,-0.122,-0.146,-0.068,0.224,0.083,0.761
0.049,0.0,-0.049,-0.024,0.049,-0.024,-0.122,-0.151,-0.063,0.234,0.088,0.761
0.044,0.0,-0.044,-0.02,0.044,-0.024,-0.117,-0.156,-0.063,0.239,0.093,0.756
0.044,0.005,-0.039,-0.024,0.039,-0.02,-0.127,-0.166,-0.068,0.249,0.102,0.756
0.049,0.01,-0.039,-0.029,0.044,-0.015,-0.127,-0.166,-0.068,0.264,0.112,0.771
0.059,0.01,-0.049,-0.034,0.054,-0.02,-0.146,-0.166,-0.068,0.273,0.117,0.776
0.063,0.015,-0.049,-0.039,0.054,-0.02,-0.151,-0.171,-0.059,0.273,0.127,0.776
0.078,0.039,-0.039,-0.059,0.059,0.0,-0.176,-0.195,-0.063,0.288,0.146,0.776
0.078,0.044,-0.034,-0.059,0.054,0.005,-0.195,-0.205,-0.068,0.298,0.156,0.781
0.059,0.034,-0.024,-0.044,0.039,0.005,-0.21,-0.224,-0.073,0.307,0.161,0.781
0.068,0.049,-0.02,-0.059,0.044,0.015,-0.234,-0.244,-0.078,0.307,0.166,0.771
0.073,0.068,-0.005,-0.068,0.039,0.029,-0.259,-0.264,-0.088,0.303,0.171,0.776
0.073,0.078,0.005,-0.073,0.034,0.039,-0.268,-0.273,-0.088,0.312,0.181,0.781
0.073,0.088,0.015,-0.078,0.029,0.049,-0.283,-0.283,-0.093,0.317,0.185,0.786
0.073,0.102,0.029,-0.088,0.02,0.063,-0.298,-0.293,-0.093,0.322,0.19,0.791
0.073,0.112,0.039,-0.093,0.015,0.073,-0.312,-0.303,-0.102,0.327,0.205,0.795
0.078,0.122,0.044,-0.098,0.015,0.083,-0.322,-0.312,-0.098,0.342,0.215,0.795
0.083,0.137,0.054,-0.107,0.015,0.093,-0.327,-0.332,-0.098,0.342,0.215,0.795
0.083,0.122,0.039,-0.102,0.02,0.078,-0.332,-0.351,-0.098,0.342,0.215,0.795
0.073,0.122,0.049,-0.098,0.01,0.083,-0.346,-0.361,-0.107,0.337,0.22,0.786
0.088,0.137,0.049,-0.112,0.02,0.093,-0.361,-0.371,-0.117,0.332,0.22,0.786
0.088,0.146,0.059,-0.117,0.015,0.102,-0.386,-0.376,-0.122,0.327,0.22,0.786
0.068,0.132,0.063,-0.098,0.0,0.098,-0.4,-0.376,-0.122,0.322,0.215,0.786
0.063,0.132,0.068,-0.098,-0.005,0.098,-0.405,-0.376,-0.122,0.312,0.2,0.781
0.083,0.142,0.059,-0.112,0.01,0.098,-0.42,-0.381,-0.122,0.312,0.2,0.781
0.078,0.142,0.063,-0.107,0.005,0.102,-0.415,-0.386,-0.112,0.312,0.2,0.776
0.063,0.142,0.078,-0.102,-0.01,0.107,-0.415,-0.395,-0.112,0.312,0.2,0.771
0.073,0.142,0.068,-0.107,0.0,0.102,-0.429,-0.395,-0.122,0.312,0.2,0.766
0.073,0.142,0.068,-0.107,0.0,0.102,-0.444,-0.4,-0.117,0.307,0.21,0.766
0.073,0.142,0.068,-0.107,0.0,0.102,-0.449,-0.4,-0.112,0.303,0.21,0.766
0.078,0.142,0.063,-0.107,0.005,0.102,-0.459,-0.4,-0.107,0.293,0.22,0.756
0.068,0.156,0.088,-0.112,-0.01,0.122,-0.449,-0.39,-0.112,0.293,0.21,0.756
0.063,0.156,0.093,-0.107,-0.015,0.122,-0.449,-0.386,-0.102,0.293,0.2,0.761
0.063,0.151,0.088,-0.107,-0.015,0.117,-0.449,-0.386,-0.098,0.288,0.195,0.756
0.063,0.151,0.088,-0.107,-0.015,0.117,-0.449,-0.386,-0.098,0.283,0.19,0.747
0.073,0.151,0.078,-0.112,-0.005,0.112,-0.429,-0.371,-0.088,0.278,0.195,0.732
0.073,0.146,0.073,-0.107,0.0,0.107,-0.425,-0.366,-0.088,0.273,0.195,0.722
0.073,0.146,0.073,-0.107,0.0,0.107,-0.439,-0.371,-0.102,0.259,0.19,0.722
0.073,0.146,0.073,-0.107,0.0,0.107,-0.434,-0.356,-0.088,0.259,0.185,0.722
0.083,0.146,0.063,-0.112,0.01,0.102,-0.42,-0.342,-0.083,0.249,0.181,0.703
0.083,0.146,0.063,-0.112,0.01,0.102,-0.42,-0.332,-0.083,0.234,0.176,0.693
0.078,0.146,0.068,-0.112,0.005,0.107,-0.415,-0.322,-0.078,0.224,0.156,0.688
0.068,0.142,0.073,-0.102,-0.005,0.107,-0.405,-0.303,-0.073,0.224,0.151,0.683
0.068,0.127,0.059,-0.098,0.005,0.093,-0.39,-0.303,-0.059,0.205,0.142,0.659
0.088,0.127,0.039,-0.107,0.024,0.083,-0.386,-0.293,-0.054,0.19,0.132,0.654
0.078,0.122,0.044,-0.098,0.015,0.083,-0.381,-0.268,-0.049,0.185,0.127,0.649
0.078,0.117,0.039,-0.098,0.02,0.078,-0.376,-0.244,-0.039,0.166,0.107,0.644
0.068,0.107,0.039,-0.088,0.015,0.073,-0.361,-0.234,-0.034,0.156,0.102,0.63
0.059,0.102,0.044,-0.078,0.005,0.073,-0.337,-0.224,-0.015,0.156,0.102,0.634
0.044,0.098,0.054,-0.068,-0.005,0.073,-0.317,-0.21,-0.005,0.151,0.098,0.634
0.044,0.098,0.054,-0.068,-0.005,0.073,-0.303,-0.185,0.0,0.142,0.093,0.63
0.049,0.088,0.039,-0.068,0.005,0.063,-0.288,-0.176,0.01,0.142,0.078,0.605
0.054,0.088,0.034,-0.068,0.01,0.059,-0.264,-0.156,0.015,0.137,0.073,0.59
0.063,0.098,0.034,-0.078,0.015,0.063,-0.254,-0.142,0.02,0.127,0.063,0.576
0.068,0.098,0.029,-0.083,0.02,0.063,-0.244,-0.132,0.024,0.112,0.054,0.556
0.063,0.068,0.005,-0.063,0.029,0.034,-0.229,-0.107,0.039,0.107,0.039,0.551
0.054,0.063,0.01,-0.059,0.02,0.034,-0.215,-0.093,0.054,0.093,0.039,0.547
0.054,0.063,0.01,-0.059,0.02,0.034,-0.19,-0.083,0.059,0.078,0.024,0.542
0.054,0.059,0.005,-0.054,0.024,0.029,-0.171,-0.078,0.068,0.073,0.02,0.527
0.039,0.039,0.0,-0.039,0.02,0.02,-0.161,-0.068,0.068,0.068,0.005,0.512
0.029,0.015,-0.015,-0.02,0.02,0.0,-0.142,-0.054,0.063,0.063,-0.01,0.498
0.02,0.0,-0.02,-0.01,0.02,-0.01,-0.127,-0.034,0.059,0.039,-0.024,0.483
0.015,-0.024,-0.039,0.005,0.024,-0.034,-0.107,-0.02,0.063,0.024,-0.034,0.468
0.02,-0.015,-0.034,0.0,0.024,-0.024,-0.083,-0.01,0.073,0.015,-0.054,0.459
0.024,-0.015,-0.039,-0.005,0.029,-0.029,-0.059,0.01,0.073,0.005,-0.059,0.459
0.029,-0.02,-0.049,-0.005,0.039,-0.034,-0.044,0.015,0.073,0.005,-0.063,0.444
0.029,-0.029,-0.059,0.0,0.044,-0.044,-0.039,0.024,0.073,0.0,-0.078,0.425
0.01,-0.044,-0.054,0.02,0.029,-0.049,-0.029,0.034,0.068,-0.01,-0.083,0.415
0.0,-0.054,-0.054,0.029,0.024,-0.054,-0.015,0.049,0.078,-0.015,-0.083,0.41
-0.005,-0.059,-0.054,0.034,0.024,-0.059,0.02,0.063,0.068,-0.015,-0.083,0.41
-0.01,-0.063,-0.054,0.039,0.02,-0.059,0.029,0.063,0.063,-0.02,-0.088,0.41
-0.005,-0.059,-0.054,0.034,0.024,-0.059,0.049,0.068,0.054,-0.029,-0.098,0.405
-0.01,-0.068,-0.059,0.039,0.024,-0.063,0.063,0.073,0.054,-0.044,-0.102,0.4
-0.005,-0.063,-0.059,0.034,0.024,-0.063,0.073,0.078,0.054,-0.054,-0.107,0.39
0.0,-0.049,-0.049,0.024,0.024,-0.049,0.083,0.083,0.059,-0.063,-0.112,0.386
-0.02,-0.073,-0.054,0.049,0.015,-0.063,0.107,0.102,0.063,-0.054,-0.112,0.376
-0.02,-0.073,-0.054,0.049,0.015,-0.063,0.127,0.102,0.068,-0.054,-0.112,0.366
-0.029,-0.073,-0.044,0.054,0.005,-0.059,0.137,0.102,0.073,-0.054,-0.117,0.361
-0.029,-0.073,-0.044,0.054,0.005,-0.059,0.151,0.122,0.073,-0.054,-0.122,0.356
0.024,-0.054,-0.078,0.015,0.049,-0.068,0.161,0.132,0.073,-0.054,-0.127,0.356
0.015,-0.063,-0.078,0.024,0.044,-0.073,0.171,0.127,0.063,-0.063,-0.132,0.356
-0.02,-0.068,-0.049,0.044,0.015,-0.059,0.176,0.137,0.068,-0.059,-0.127,0.361
-0.015,-0.059,-0.044,0.039,0.015,-0.054,0.166,0.132,0.063,-0.073,-0.127,0.351
-0.01,-0.059,-0.049,0.034,0.02,-0.054,0.166,0.127,0.059,-0.078,-0.127,0.351
-0.005,-0.059,-0.054,0.034,0.024,-0.059,0.166,0.122,0.054,-0.083,-0.127,0.351
0.0,-0.059,-0.059,0.029,0.029,-0.059,0.166,0.117,0.049,-0.088,-0.127,0.351
-0.005,-0.059,-0.054,0.034,0.024,-0.059,0.146,0.098,0.044,-0.098,-0.132,0.346
-0.02,-0.068,-0.049,0.044,0.015,-0.059,0.137,0.088,0.044,-0.093,-0.132,0.346
-0.015,-0.054,-0.039,0.034,0.01,-0.049,0.117,0.078,0.039,-0.093,-0.137,0.346
-0.015,-0.039,-0.024,0.029,0.005,-0.034,0.102,0.059,0.024,-0.102,-0.142,0.342
-0.005,-0.044,-0.039,0.024,0.015,-0.044,0.083,0.044,0.015,-0.117,-0.146,0.327
-0.005,-0.034,-0.029,0.02,0.01,-0.034,0.059,0.02,0.005,-0.117,-0.146,0.327
-0.005,-0.024,-0.02,0.015,0.005,-0.024,0.039,0.005,-0.005,-0.112,-0.146,0.327
0.0,-0.034,-0.034,0.02,0.015,-0.034,0.02,-0.01,-0.015,-0.102,-0.146,0.327
-0.005,-0.044,-0.039,0.024,0.015,-0.044,0.0,-0.034,-0.024,-0.122,-0.142,0.312
-0.024,-0.049,-0.024,0.039,0.0,-0.039,-0.015,-0.039,-0.029,-0.122,-0.146,0.312
-0.029,-0.049,-0.02,0.039,-0.005,-0.034,-0.01,-0.044,-0.029,-0.122,-0.146,0.312
-0.034,-0.049,-0.015,0.044,-0.01,-0.034,-0.015,-0.044,-0.029,-0.122,-0.142,0.317
-0.024,-0.049,-0.024,0.039,0.0,-0.039,-0.034,-0.054,-0.039,-0.127,-0.151,0.312
-0.024,-0.049,-0.024,0.039,0.0,-0.039,-0.054,-0.063,-0.044,-0.127,-0.156,0.307
-0.024,-0.049,-0.024,0.039,0.0,-0.039,-0.068,-0.073,-0.049,-0.127,-0.156,0.303
-0.02,-0.049,-0.029,0.034,0.005,-0.039,-0.093,-0.083,-0.059,-0.127,-0.166,0.298
-0.01,-0.044,-0.034,0.029,0.01,-0.039,-0.098,-0.083,-0.049,-0.117,-0.161,0.288
-0.015,-0.049,-0.034,0.034,0.01,-0.044,-0.102,-0.083,-0.049,-0.117,-0.156,0.298
-0.015,-0.034,-0.02,0.024,0.0,-0.029,-0.093,-0.078,-0.049,-0.117,-0.146,0.298
-0.01,-0.02,-0.01,0.015,0.0,-0.015,-0.098,-0.078,-0.049,-0.117,-0.142,0.298
-0.02,-0.029,-0.01,0.024,-0.005,-0.02,-0.102,-0.083,-0.049,-0.107,-0.132,0.307
-0.02,-0.029,-0.01,0.024,-0.005,-0.02,-0.107,-0.088,-0.049,-0.107,-0.132,0.307
-0.015,-0.029,-0.015,0.024,0.0,-0.024,-0.117,-0.093,-0.054,-0.112,-0.137,0.303
-0.015,-0.029,-0.015,0.024,0.0,-0.024,-0.122,-0.098,-0.054,-0.112,-0.137,0.303
-0.024,-0.044,-0.02,0.034,-0.005,-0.034,-0.112,-0.088,-0.054,-0.098,-0.132,0.293
-0.029,-0.044,-0.015,0.039,-0.01,-0.029,-0.112,-0.088,-0.049,-0.098,-0.132,0.293
-0.034,-0.044,-0.01,0.039,-0.015,-0.029,-0.107,-0.088,-0.049,-0.098,-0.132,0.283
-0.039,-0.044,-0.005,0.044,-0.02,-0.024,-0.107,-0.083,-0.054,-0.093,-0.127,0.293
-0.024,-0.039,-0.015,0.034,-0.005,-0.029,-0.107,-0.078,-0.039,-0.078,-0.112,0.303
-0.02,-0.034,-0.015,0.029,-0.005,-0.024,-0.102,-0.078,-0.044,-0.083,-0.112,0.298
-0.02,-0.039,-0.02,0.029,0.0,-0.029,-0.098,-0.073,-0.039,-0.078,-0.107,0.298
-0.015,-0.034,-0.02,0.024,0.0,-0.029,-0.093,-0.063,-0.029,-0.073,-0.102,0.303
-0.015,-0.034,-0.02,0.024,0.0,-0.029,-0.102,-0.063,-0.039,-0.073,-0.102,0.293
-0.015,-0.034,-0.02,0.024,0.0,-0.029,-0.102,-0.063,-0.039,-0.068,-0.093,0.293
-0.02,-0.034,-0.015,0.029,-0.005,-0.024,-0.098,-0.063,-0.029,-0.068,-0.093,0.293
-0.02,-0.034,-0.015,0.029,-0.005,-0.024,-0.098,-0.063,-0.039,-0.073,-0.102,0.288
-0.01,-0.024,-0.015,0.02,0.0,-0.02,-0.083,-0.063,-0.034,-0.068,-0.088,0.298
-0.015,-0.029,-0.015,0.024,0.0,-0.024,-0.078,-0.049,-0.024,-0.059,-0.078,0.303
-0.015,-0.029,-0.015,0.024,0.0,-0.024,-0.073,-0.049,-0.015,-0.049,-0.073,0.303
-0.005,-0.015,-0.01,0.01,0.0,-0.015,-0.073,-0.049,-0.01,-0.044,-0.068,0.303
-0.015,-0.039,-0.024,0.029,0.005,-0.034,-0.073,-0.044,-0.024,-0.054,-0.083,0.298
-0.02,-0.049,-0.029,0.034,0.005,-0.039,-0.073,-0.044,-0.024,-0.063,-0.083,0.288
-0.005,-0.034,-0.029,0.02,0.01,-0.034,-0.068,-0.044,-0.024,-0.068,-0.083,0.283
0.005,-0.034,-0.039,0.015,0.02,-0.039,-0.068,-0.044,-0.024,-0.073,-0.088,0.278
-0.005,-0.044,-0.039,0.024,0.015,-0.044,-0.063,-0.034,-0.015,-0.068,-0.078,0.288
-0.015,-0.044,-0.029,0.029,0.005,-0.039,-0.063,-0.039,-0.02,-0.063,-0.078,0.288
-0.005,-0.039,-0.034,0.024,0.015,-0.039,-0.063,-0.039,-0.02,-0.054,-0.078,0.288
0.01,-0.039,-0.049,0.015,0.029,-0.044,-0.059,-0.034,-0.01,-0.049,-0.078,0.288
0.0,-0.039,-0.039,0.02,0.02,-0.039,-0.054,-0.034,-0.01,-0.049,-0.078,0.288
0.0,-0.049,-0.049,0.024,0.024,-0.049,-0.049,-0.034,-0.02,-0.049,-0.078,0.288
-0.005,-0.054,-0.049,0.029,0.02,-0.054,-0.039,-0.034,-0.02,-0.049,-0.078,0.288
-0.005,-0.054,-0.049,0.029,0.02,-0.054,-0.034,-0.034,-0.015,-0.049,-0.078,0.288
-0.005,-0.044,-0.039,0.024,0.015,-0.044,-0.029,-0.029,-0.024,-0.049,-0.068,0.273
-0.005,-0.054,-0.049,0.029,0.02,-0.054,-0.024,-0.029,-0.024,-0.049,-0.068,0.273
0.0,-0.054,-0.054,0.029,0.024,-0.054,-0.02,-0.029,-0.024,-0.049,-0.068,0.273
0.0,-0.049,-0.049,0.024,0.024,-0.049,-0.015,-0.029,-0.024,-0.049,-0.068,0.273
0.01,-0.049,-0.059,0.02,0.034,-0.054,0.0,-0.015,-0.02,-0.039,-0.059,0.283
0.005,-0.059,-0.063,0.029,0.034,-0.063,0.005,-0.01,-0.015,-0.039,-0.059,0.278
0.005,-0.059,-0.063,0.029,0.034,-0.063,0.01,-0.01,-0.02,-0.049,-0.059,0.273
0.005,-0.054,-0.059,0.024,0.029,-0.059,0.02,-0.005,-0.015,-0.049,-0.073,0.273
-0.015,-0.073,-0.059,0.044,0.02,-0.068,0.034,0.0,-0.02,-0.054,-0.063,0.273
-0.01,-0.083,-0.073,0.049,0.029,-0.078,0.044,0.0,-0.01,-0.054,-0.063,0.264
-0.01,-0.063,-0.054,0.039,0.02,-0.059,0.044,0.0,-0.02,-0.068,-0.088,0.259
0.0,-0.054,-0.054,0.029,0.024,-0.054,0.049,0.0,-0.029,-0.088,-0.112,0.239
-0.005,-0.054,-0.049,0.029,0.02,-0.054,0.073,0.024,-0.015,-0.102,-0.132,0.229
-0.024,-0.054,-0.029,0.039,0.0,-0.044,0.093,0.044,-0.005,-0.117,-0.151,0.22
-0.024,-0.044,-0.02,0.034,-0.005,-0.034,0.088,0.044,-0.015,-0.137,-0.166,0.2
-0.044,-0.063,-0.02,0.054,-0.015,-0.044,0.117,0.044,-0.01,-0.093,-0.146,0.2
-0.039,-0.068,-0.029,0.054,-0.005,-0.049,0.142,0.063,0.029,0.034,-0.068,0.229
0.005,-0.073,-0.078,0.034,0.039,-0.078,0.142,0.083,0.078,0.176,0.005,0.239
0.02,-0.107,-0.127,0.044,0.073,-0.117,0.156,0.107,0.132,0.342,0.098,0.264
-0.02,-0.146,-0.127,0.083,0.054,-0.137,0.185,0.132,0.185,0.512,0.215,0.307
-0.02,-0.146,-0.127,0.083,0.054,-0.137,0.185,0.176,0.264,0.698,0.346,0.376
0.01,-0.102,-0.112,0.049,0.059,-0.107,0.205,0.239,0.39,0.888,0.483,0.449
0.054,-0.024,-0.078,-0.015,0.063,-0.054,0.234,0.312,0.532,1.074,0.62,0.561
0.098,0.073,-0.024,-0.083,0.059,0.024,0.224,0.356,0.664,1.249,0.786,0.678
0.117,0.156,0.039,-0.137,0.039,0.098,0.205,0.41,0.791,1.405,0.917,0.786
0.093,0.176,0.083,-0.132,0.005,0.127,0.234,0.488,0.917,1.488,0.971,0.825
0.068,0.181,0.112,-0.122,-0.024,0.146,0.254,0.551,0.996,1.386,0.898,0.8
0.063,0.2,0.137,-0.132,-0.039,0.166,0.288,0.6,0.986,1.088,0.664,0.669
0.0,0.195,0.195,-0.098,-0.098,0.195,0.386,0.664,0.932,0.664,0.307,0.493
-0.093,0.181,0.273,-0.044,-0.185,0.224,0.522,0.732,0.82,0.137,-0.093,0.278
-0.181,0.127,0.307,0.029,-0.244,0.215,0.62,0.752,0.659,-0.429,-0.503,0.039
-0.244,0.02,0.264,0.112,-0.254,0.142,0.698,0.766,0.517,-0.864,-0.795,-0.151
-0.273,-0.073,0.2,0.176,-0.239,0.063,0.752,0.786,0.439,-1.098,-0.942,-0.244
-0.278,-0.132,0.146,0.205,-0.215,0.005,0.752,0.766,0.381,-1.176,-0.981,-0.293
-0.288,-0.176,0.112,0.234,-0.2,-0.034,0.712,0.717,0.337,-1.083,-0.937,-0.303
-0.268,-0.205,0.063,0.239,-0.166,-0.073,0.673,0.698,0.366,-0.893,-0.815,-0.249
-0.22,-0.176,0.044,0.2,-0.132,-0.068,0.649,0.688,0.376,-0.781,-0.717,-0.195
-0.195,-0.156,0.039,0.176,-0.117,-0.059,0.62,0.664,0.327,-0.737,-0.673,-0.176
-0.215,-0.176,0.039,0.195,-0.127,-0.068,0.61,0.678,0.337,-0.654,-0.625,-0.156
-0.215,-0.185,0.029,0.2,-0.122,-0.078,0.61,0.708,0.395,-0.547,-0.576,-0.132
-0.161,-0.142,0.02,0.151,-0.093,-0.063,0.605,0.732,0.366,-0.517,-0.547,-0.122
-0.137,-0.142,-0.005,0.142,-0.068,-0.073,0.605,0.747,0.278,-0.522,-0.532,-0.112
-0.151,-0.181,-0.029,0.166,-0.063,-0.107,0.625,0.786,0.239,-0.493,-0.503,-0.098
-0.151,-0.181,-0.029,0.166,-0.063,-0.107,0.644,0.83,0.2,-0.478,-0.483,-0.088
-0.161,-0.171,-0.01,0.166,-0.078,-0.093,0.703,0.893,0.142,-0.493,-0.473,-0.083
-0.176,-0.2,-0.024,0.19,-0.078,-0.112,0.761,0.952,0.088,-0.508,-0.464,-0.063
-0.166,-0.21,-0.044,0.19,-0.063,-0.127,0.795,0.952,0.005,-0.527,-0.464,-0.073
-0.166,-0.195,-0.029,0.181,-0.068,-0.112,0.81,0.903,-0.102,-0.556,-0.473,-0.088
-0.176,-0.176,0.0,0.176,-0.088,-0.088,0.844,0.864,-0.171,-0.532,-0.459,-0.059
-0.166,-0.176,-0.01,0.171,-0.078,-0.093,0.878,0.839,-0.205,-0.512,-0.439,-0.054
-0.127,-0.166,-0.039,0.146,-0.044,-0.102,0.927,0.839,-0.224,-0.503,-0.439,-0.063
-0.112,-0.176,-0.063,0.146,-0.024,-0.122,0.986,0.859,-0.205,-0.478,-0.429,-0.054
-0.176,-0.215,-0.039,0.195,-0.068,-0.127,1.064,0.869,-0.176,-0.429,-0.39,-0.024
-0.2,-0.2,0.0,0.2,-0.102,-0.102,1.122,0.839,-0.166,-0.405,-0.361,-0.005
-0.2,-0.19,0.01,0.195,-0.107,-0.093,1.142,0.795,-0.176,-0.39,-0.356,-0.01
-0.195,-0.205,-0.01,0.2,-0.093,-0.107,1.176,0.761,-0.181,-0.381,-0.337,-0.005
-0.176,-0.205,-0.029,0.19,-0.073,-0.117,1.23,0.737,-0.19,-0.381,-0.337,-0.005
-0.166,-0.185,-0.02,0.176,-0.073,-0.102,1.24,0.669,-0.2,-0.381,-0.342,-0.02
-0.166,-0.185,-0.02,0.176,-0.073,-0.102,1.176,0.561,-0.215,-0.371,-0.332,-0.005
-0.151,-0.161,-0.01,0.156,-0.073,-0.088,1.049,0.434,-0.21,-0.332,-0.303,0.02
-0.122,-0.122,0.0,0.122,-0.063,-0.063,0.844,0.268,-0.229,-0.303,-0.288,0.034
-0.073,-0.093,-0.02,0.083,-0.029,-0.059,0.659,0.093,-0.239,-0.278,-0.264,0.049
-0.083,-0.098,-0.015,0.093,-0.034,-0.059,0.532,-0.024,-0.22,-0.224,-0.21,0.088
-0.098,-0.098,0.0,0.098,-0.049,-0.049,0.42,-0.063,-0.2,-0.185,-0.176,0.107
-0.083,-0.088,-0.005,0.088,-0.039,-0.049,0.303,-0.078,-0.195,-0.166,-0.146,0.117
-0.063,-0.098,-0.034,0.083,-0.015,-0.068,0.21,-0.073,-0.166,-0.132,-0.117,0.142
-0.063,-0.098,-0.034,0.083,-0.015,-0.068,0.122,-0.083,-0.146,-0.102,-0.093,0.156
-0.054,-0.073,-0.02,0.063,-0.02,-0.049,0.063,-0.093,-0.137,-0.098,-0.098,0.156
-0.044,-0.073,-0.029,0.059,-0.01,-0.054,0.049,-0.083,-0.132,-0.093,-0.093,0.156
-0.044,-0.063,-0.02,0.054,-0.015,-0.044,0.039,-0.059,-0.102,-0.073,-0.078,0.166
-0.049,-0.059,-0.01,0.054,-0.02,-0.034,0.005,-0.078,-0.102,-0.068,-0.078,0.166
-0.034,-0.054,-0.02,0.044,-0.01,-0.039,-0.01,-0.088,-0.098,-0.068,-0.073,0.166
-0.01,-0.054,-0.044,0.034,0.015,-0.049,-0.01,-0.098,-0.098,-0.063,-0.068,0.166
0.005,-0.044,-0.049,0.02,0.024,-0.049,-0.029,-0.102,-0.117,-0.063,-0.068,0.166
0.005,-0.059,-0.063,0.029,0.034,-0.063,-0.049,-0.107,-0.117,-0.054,-0.063,0.171
0.01,-0.059,-0.068,0.024,0.039,-0.063,-0.059,-0.117,-0.117,-0.049,-0.049,0.176
0.02,-0.054,-0.073,0.02,0.044,-0.063,-0.063,-0.122,-0.112,-0.039,-0.039,0.185
